timestamp,t_mono,m1,m2,m3,grav_raw,grav_env
2026-06-22T19:37:45.487197,1782137265.437688,0,0,0,1723,0.0
2026-06-22T19:37:45.487436,1782137265.487294,7,0,0,1693,0.010858536234929848
2026-06-22T19:37:45.487517,1782137265.487454,29,0,0,1691,0.10103849627918737
2026-06-22T19:37:45.487581,1782137265.487527,21,0,0,1701,0.42820502791451265
2026-06-22T19:37:45.487643,1782137265.4875891,7,0,0,1707,1.1374688656938456
2026-06-22T19:37:45.487726,1782137265.4876502,10,0,0,1712,2.202661051632064
2026-06-22T19:37:45.488107,1782137265.487743,9,0,0,1705,3.3993540246523466
2026-06-22T19:37:45.488544,1782137265.488141,31,0,0,1694,4.383593887315794
2026-06-22T19:37:45.488771,1782137265.4885929,7,0,0,1705,4.815861809407617
2026-06-22T19:37:45.489191,1782137265.48881,64,0,0,1709,4.550455489903226
2026-06-22T19:37:45.489271,1782137265.4892101,7,0,0,1710,3.7525980717679976
2026-06-22T19:37:45.489395,1782137265.489291,35,0,0,1696,2.783221071328892
2026-06-22T19:37:45.489640,1782137265.489493,14,0,0,1706,1.969734339304699
2026-06-22T19:37:45.489734,1782137265.4896588,0,0,0,1696,1.5046606436059338
2026-06-22T19:37:45.489801,1782137265.489742,0,0,0,1710,1.4857275523557458
2026-06-22T19:37:45.489896,1782137265.4898078,13,0,0,1705,1.9139259328179934
2026-06-22T19:37:45.490010,1782137265.489923,29,0,0,1697,2.6131047517755386
2026-06-22T19:37:45.490066,1782137265.4900181,13,0,0,1698,3.262643800071011
2026-06-22T19:37:45.490117,1782137265.4900732,0,0,0,1706,3.6148021283354863
2026-06-22T19:37:45.490167,1782137265.490123,2,0,0,1712,3.6488377244984207
2026-06-22T19:37:45.490220,1782137265.490175,48,0,0,1707,3.4685982697526443
2026-06-22T19:37:45.490280,1782137265.490226,23,0,0,1683,3.1449841392230065
2026-06-22T19:37:45.490335,1782137265.490286,9,0,0,1701,2.7358324451773175
2026-06-22T19:37:45.493703,1782137265.49034,32,0,0,1702,2.385403657628842
2026-06-22T19:37:45.493820,1782137265.493721,64,0,0,1713,2.3089756868896405
2026-06-22T19:37:45.494208,1782137265.493838,10,0,0,1699,2.62065335975651
2026-06-22T19:37:45.494286,1782137265.494216,7,0,0,1698,3.186483165586504
2026-06-22T19:37:45.494386,1782137265.494296,7,0,0,1707,3.696788670604547
2026-06-22T19:37:45.494452,1782137265.4943979,65,0,0,1711,3.8851997706711905
2026-06-22T19:37:45.494503,1782137265.494459,4,0,0,1707,3.7267473470344465
2026-06-22T19:37:45.494568,1782137265.494509,16,0,0,1707,3.438355712119534
2026-06-22T19:37:45.494631,1782137265.494574,10,0,0,1697,3.223293407237554
2026-06-22T19:37:45.494697,1782137265.494644,58,0,0,1701,3.0737009012398677
2026-06-22T19:37:45.494756,1782137265.494703,0,0,0,1701,2.8600966670297883
2026-06-22T19:37:45.494809,1782137265.494762,25,0,0,1702,2.505990384794678
2026-06-22T19:37:45.494862,1782137265.4948149,29,0,0,1693,2.053079285900947
2026-06-22T19:37:45.494910,1782137265.494868,48,0,0,1701,1.6212585108067372
2026-06-22T19:37:45.494959,1782137265.4949162,22,0,0,1712,1.3095795617589103
2026-06-22T19:37:45.495007,1782137265.494964,0,0,0,1711,1.1439120752220509
2026-06-22T19:37:45.495076,1782137265.495012,26,0,0,1699,1.1466973221942889
2026-06-22T19:37:45.495139,1782137265.495091,35,0,0,1690,1.3809080631772597
2026-06-22T19:37:45.495199,1782137265.4951448,14,0,0,1698,1.8308599534238994
2026-06-22T19:37:45.495250,1782137265.4952059,66,0,0,1712,2.3275671395261215
2026-06-22T19:37:45.495313,1782137265.495256,1,0,0,1705,2.694721948620312
2026-06-22T19:37:45.495370,1782137265.4953191,33,0,0,1697,2.8822010243729954
2026-06-22T19:37:45.495419,1782137265.4953759,16,0,0,1696,2.926425595267861
2026-06-22T19:37:45.495471,1782137265.495425,0,0,0,1706,2.887144481781276
2026-06-22T19:37:45.495526,1782137265.495476,0,0,0,1718,2.8297463483936904
2026-06-22T19:37:45.495582,1782137265.495532,16,0,0,1706,2.78719318474831
2026-06-22T19:37:45.495635,1782137265.495588,17,0,0,1674,2.7366941034402514
2026-06-22T19:37:45.495692,1782137265.495641,2,0,0,1702,2.6779729375059023
2026-06-22T19:37:45.495747,1782137265.4956968,16,0,0,1703,2.7497308968192233
2026-06-22T19:37:45.495814,1782137265.49576,20,0,0,1713,3.214193142253431
2026-06-22T19:37:45.495872,1782137265.4958231,2,0,0,1707,4.217500473751234
2026-06-22T19:37:45.495931,1782137265.495879,19,0,0,1690,5.5489316888827185
2026-06-22T19:37:45.496033,1782137265.495937,5,0,0,1702,6.737259658212747
2026-06-22T19:37:45.496642,1782137265.4960582,32,0,0,1711,7.388058355194298
2026-06-22T19:37:45.496758,1782137265.496649,42,0,0,1709,7.405649212067675
2026-06-22T19:37:45.496837,1782137265.496775,18,0,0,1696,6.932692173119443
2026-06-22T19:37:45.496895,1782137265.4968472,16,0,0,1699,6.153776489901203
2026-06-22T19:37:45.496951,1782137265.496902,12,0,0,1702,5.238262552532847
2026-06-22T19:37:45.497016,1782137265.496958,48,0,0,1707,4.387866121661931
2026-06-22T19:37:45.497104,1782137265.497022,3,0,0,1721,3.767361989756456
2026-06-22T19:37:45.497159,1782137265.4971101,10,0,0,1699,3.402769144766966
2026-06-22T19:37:45.497215,1782137265.4971662,6,0,0,1693,3.245842684672243
2026-06-22T19:37:45.497264,1782137265.4972212,76,0,0,1706,3.273416231371216
2026-06-22T19:37:45.497320,1782137265.49727,0,0,0,1712,3.453137830311503
2026-06-22T19:37:45.497380,1782137265.497327,7,0,0,1703,3.7182995989453715
2026-06-22T19:37:45.497438,1782137265.497387,23,0,0,1685,4.011532796860354
2026-06-22T19:37:45.497488,1782137265.4974442,60,0,0,1703,4.271796684457724
2026-06-22T19:37:45.497725,1782137265.497494,17,0,0,1706,4.4461378965778575
2026-06-22T19:37:45.497780,1782137265.497733,0,0,0,1712,4.588194033068756
2026-06-22T19:37:45.497887,1782137265.497787,18,0,0,1703,4.8160341052170255
2026-06-22T19:37:45.497941,1782137265.4978938,50,0,0,1692,5.105781648615769
2026-06-22T19:37:45.497995,1782137265.497947,7,0,0,1680,5.238094071498797
2026-06-22T19:37:45.498049,1782137265.4980009,68,0,0,1703,4.983334211490799
2026-06-22T19:37:45.498103,1782137265.498057,10,0,0,1709,4.308884799975586
2026-06-22T19:37:45.498153,1782137265.4981089,48,0,0,1702,3.4305910586885755
2026-06-22T19:37:45.498202,1782137265.4981592,17,0,0,1693,2.6737879301676424
2026-06-22T19:37:45.498251,1782137265.498208,7,0,0,1712,2.2823495420932547
2026-06-22T19:37:45.498299,1782137265.498256,0,0,0,1702,2.3352421310967255
2026-06-22T19:37:45.498351,1782137265.498305,26,0,0,1707,2.7875061500402407
2026-06-22T19:37:45.498401,1782137265.498357,13,0,0,1687,3.521824645409712
2026-06-22T19:37:45.498454,1782137265.498407,9,0,0,1691,4.30199850111542
2026-06-22T19:37:45.498503,1782137265.4984598,15,0,0,1701,4.775055776081186
2026-06-22T19:37:45.498560,1782137265.4985092,11,0,0,1711,4.682687871568434
2026-06-22T19:37:45.498612,1782137265.4985669,16,0,0,1712,4.087058921237762
2026-06-22T19:37:45.498668,1782137265.4986181,26,0,0,1691,3.340657541198139
2026-06-22T19:37:45.498717,1782137265.498674,9,0,0,1725,2.84707748703994
2026-06-22T19:37:45.498767,1782137265.498723,39,0,0,1711,2.9294235714034147
2026-06-22T19:37:45.498816,1782137265.498773,0,0,0,1712,3.860954405336896
2026-06-22T19:37:45.498885,1782137265.498821,11,0,0,1701,5.692236542932974
2026-06-22T19:37:45.498939,1782137265.498892,16,0,0,1682,7.92159774928868
2026-06-22T19:37:45.498997,1782137265.498944,15,0,0,1701,9.625699906721763
2026-06-22T19:37:45.499065,1782137265.4990091,30,0,0,1713,10.09479339378381
2026-06-22T19:37:45.499119,1782137265.499072,0,0,0,1707,9.257692767611283
2026-06-22T19:37:45.499171,1782137265.499125,15,0,0,1691,7.553760835310545
2026-06-22T19:37:45.499222,1782137265.499177,16,0,0,1702,5.593411472854563
2026-06-22T19:37:45.499271,1782137265.4992268,71,0,0,1701,3.9188220303355377
2026-06-22T19:37:45.499320,1782137265.499277,0,0,0,1719,2.884987013179846
2026-06-22T19:37:45.499374,1782137265.499326,15,0,0,1703,2.589638741745489
2026-06-22T19:37:45.499424,1782137265.4993799,17,0,0,1689,2.838206554919119
2026-06-22T19:37:45.499472,1782137265.4994292,78,0,0,1697,3.2643672894178644
2026-06-22T19:37:45.499521,1782137265.499478,16,0,0,1703,3.5957596432583854
2026-06-22T19:37:45.499569,1782137265.4995258,0,0,0,1710,3.8151579690560564
2026-06-22T19:37:45.499636,1782137265.499574,0,0,0,1705,4.039436394044719
2026-06-22T19:37:45.499687,1782137265.4996421,79,0,0,1696,4.2648712084063405
2026-06-22T19:37:45.504674,1782137265.504606,7,0,0,1705,4.32699219580531
2026-06-22T19:37:45.504730,1782137265.504683,67,0,0,1710,4.0918096835643665
2026-06-22T19:37:45.504781,1782137265.504736,0,0,0,1719,3.5783373370830684
2026-06-22T19:37:45.504831,1782137265.504787,64,0,0,1699,2.909233542923503
2026-06-22T19:37:45.506110,1782137265.504837,21,0,0,1698,2.224921044824623
2026-06-22T19:37:45.506159,1782137265.506117,0,0,0,1700,1.669613712038062
2026-06-22T19:37:45.506206,1782137265.506165,0,0,0,1703,1.3875945781567018
2026-06-22T19:37:45.506253,1782137265.506211,64,0,0,1712,1.4718171495537924
2026-06-22T19:37:45.506299,1782137265.506258,16,0,0,1685,1.93259063723099
2026-06-22T19:37:45.506346,1782137265.506305,14,0,0,1696,2.72030389000967
2026-06-22T19:37:45.506393,1782137265.5063522,16,0,0,1703,3.7798029450367077
2026-06-22T19:37:45.506439,1782137265.506399,28,0,0,1710,5.030558548883341
2026-06-22T19:37:45.506527,1782137265.5064461,6,0,0,1709,6.226180230761399
2026-06-22T19:37:45.506633,1782137265.5065331,26,0,0,1687,6.9538729179185275
2026-06-22T19:37:45.506687,1782137265.5066419,3,0,0,1698,6.897354473238179
2026-06-22T19:37:45.506738,1782137265.5066938,46,0,0,1728,6.082523871440072
2026-06-22T19:37:45.506788,1782137265.5067441,4,0,0,1712,4.893220310653478
2026-06-22T19:37:45.506837,1782137265.506795,18,0,0,1702,3.9049671012971827
2026-06-22T19:37:45.506885,1782137265.5068429,22,0,0,1694,3.619831142985052
2026-06-22T19:37:45.506961,1782137265.506891,14,0,0,1701,4.156511451058704
2026-06-22T19:37:45.507019,1782137265.506971,0,0,0,1709,5.14599184323893
2026-06-22T19:37:45.507069,1782137265.507027,11,0,0,1705,5.999688968732233
2026-06-22T19:37:45.507117,1782137265.507076,25,0,0,1699,6.269970998794878
2026-06-22T19:37:45.507165,1782137265.507124,25,0,0,1687,5.8427026853804875
2026-06-22T19:37:45.507213,1782137265.5071712,28,0,0,1702,4.922032415281405
2026-06-22T19:37:45.507261,1782137265.5072188,0,0,0,1713,3.8564537555096305
2026-06-22T19:37:45.507308,1782137265.507267,7,0,0,1707,2.960199120545143
2026-06-22T19:37:45.507354,1782137265.507313,13,0,0,1691,2.407289299253499
2026-06-22T19:37:45.507415,1782137265.50736,49,0,0,1698,2.2103606566281404
2026-06-22T19:37:45.507462,1782137265.507421,14,0,0,1727,2.2916631764026314
2026-06-22T19:37:45.507513,1782137265.507471,2,0,0,1697,2.583325409141193
2026-06-22T19:37:45.507561,1782137265.507519,12,0,0,1687,3.127625974074906
2026-06-22T19:37:45.507608,1782137265.5075672,94,0,0,1692,4.068014013801699
2026-06-22T19:37:45.507655,1782137265.507615,11,0,0,1700,5.411929836769834
2026-06-22T19:37:45.507702,1782137265.507661,71,0,0,1711,6.871337632276783
2026-06-22T19:37:45.507748,1782137265.5077069,9,0,0,1712,8.019121511205489
2026-06-22T19:37:45.507795,1782137265.507754,75,0,0,1691,8.478947251098727
2026-06-22T19:37:45.507862,1782137265.5078,16,0,0,1691,8.032357091888308
2026-06-22T19:37:45.507911,1782137265.5078678,0,0,0,1702,6.74418950467655
2026-06-22T19:37:45.507958,1782137265.5079172,0,0,0,1713,4.989122952653714
2026-06-22T19:37:45.508006,1782137265.507964,46,0,0,1708,3.2907623829265207
2026-06-22T19:37:45.508053,1782137265.508011,16,0,0,1704,2.083154993578927
2026-06-22T19:37:45.508099,1782137265.508058,13,0,0,1689,1.539786362129401
2026-06-22T19:37:45.508146,1782137265.508105,0,0,0,1701,1.5490331477009431
2026-06-22T19:37:45.508355,1782137265.508229,22,0,0,1712,1.8296602911966995
2026-06-22T19:37:45.508475,1782137265.508419,15,0,0,1708,2.1108736118934357
2026-06-22T19:37:45.508634,1782137265.50859,17,0,0,1679,2.2708824987529552
2026-06-22T19:37:45.508682,1782137265.50864,5,0,0,1695,2.3630412952095106
2026-06-22T19:37:45.508965,1782137265.508849,60,0,0,1707,2.5503289737626407
2026-06-22T19:37:45.509024,1782137265.508982,0,0,0,1712,2.995087147735698
2026-06-22T19:37:45.509126,1782137265.5090702,15,0,0,1709,3.7378251615516573
2026-06-22T19:37:45.509179,1782137265.5091321,16,0,0,1696,4.659392748448229
2026-06-22T19:37:45.509386,1782137265.509333,16,0,0,1702,5.535986256965634
2026-06-22T19:37:45.509436,1782137265.509393,0,0,0,1702,6.118873601843881
2026-06-22T19:37:45.509484,1782137265.5094411,0,0,0,1713,6.2767311745957235
2026-06-22T19:37:45.509573,1782137265.5094888,16,0,0,1690,6.092511708974173
2026-06-22T19:37:45.509622,1782137265.509579,35,0,0,1693,5.774272115635666
2026-06-22T19:37:45.509673,1782137265.5096269,16,0,0,1705,5.531896734274386
2026-06-22T19:37:45.509722,1782137265.5096781,0,0,0,1710,5.495954729859017
2026-06-22T19:37:45.509770,1782137265.509727,0,0,0,1728,5.637225925398142
2026-06-22T19:37:45.509819,1782137265.5097759,31,0,0,1696,5.800710615053227
2026-06-22T19:37:45.509866,1782137265.509824,27,0,0,1695,5.864553736634094
2026-06-22T19:37:45.509915,1782137265.5098722,19,0,0,1713,5.835179528923644
2026-06-22T19:37:45.509994,1782137265.50992,0,0,0,1712,5.796737385358321
2026-06-22T19:37:45.510051,1782137265.5100002,15,0,0,1710,5.849605350663823
2026-06-22T19:37:45.562406,1782137265.562305,74,0,0,1693,6.071886939546095
2026-06-22T19:37:45.562470,1782137265.562422,0,0,0,1695,6.381069272039705
2026-06-22T19:37:45.562521,1782137265.562478,75,0,0,1701,6.496437223187713
2026-06-22T19:37:45.562569,1782137265.562527,10,0,0,1712,6.1918449982588815
2026-06-22T19:37:45.562616,1782137265.562575,82,0,0,1701,5.4772550536840345
2026-06-22T19:37:45.562671,1782137265.562622,15,0,0,1680,4.504149131654075
2026-06-22T19:37:45.562745,1782137265.562677,3,0,0,1702,3.4717370959123923
2026-06-22T19:37:45.562809,1782137265.562756,0,0,0,1708,2.646311437777547
2026-06-22T19:37:45.562860,1782137265.562816,65,0,0,1711,2.330544772866557
2026-06-22T19:37:45.562909,1782137265.562867,25,0,0,1697,2.67947767561243
2026-06-22T19:37:45.562958,1782137265.562915,11,0,0,1701,3.5211857599380894
2026-06-22T19:37:45.563006,1782137265.562965,8,0,0,1695,4.438881513654609
2026-06-22T19:37:45.563052,1782137265.5630121,47,0,0,1712,5.053497597067935
2026-06-22T19:37:45.563098,1782137265.563058,2,0,0,1712,5.198568250057262
2026-06-22T19:37:45.563143,1782137265.563103,20,0,0,1691,4.877697360768858
2026-06-22T19:37:45.563189,1782137265.563149,17,0,0,1701,4.210012225193785
2026-06-22T19:37:45.563236,1782137265.563195,66,0,0,1709,3.4925159198286675
2026-06-22T19:37:45.563290,1782137265.5632489,0,0,0,1712,3.1331152729093956
2026-06-22T19:37:45.563335,1782137265.563295,16,0,0,1714,3.3231594117442445
2026-06-22T19:37:45.563388,1782137265.563348,27,0,0,1697,3.8515868076789896
2026-06-22T19:37:45.563433,1782137265.563394,22,0,0,1699,4.311535439860625
2026-06-22T19:37:45.563483,1782137265.563442,10,0,0,1705,4.3977444894442685
2026-06-22T19:37:45.563528,1782137265.563488,1,0,0,1712,4.04347940439567
2026-06-22T19:37:45.563581,1782137265.563541,15,0,0,1701,3.3931449128058384
2026-06-22T19:37:45.563627,1782137265.5635872,37,0,0,1694,2.675511466889476
2026-06-22T19:37:45.563677,1782137265.563637,7,0,0,1707,2.0836535822517264
2026-06-22T19:37:45.563722,1782137265.563683,0,0,0,1712,1.7328226164221276
2026-06-22T19:37:45.563768,1782137265.5637288,3,0,0,1709,1.6977204459564958
2026-06-22T19:37:45.563813,1782137265.5637739,48,0,0,1693,2.0117313619544053
2026-06-22T19:37:45.563857,1782137265.563818,14,0,0,1702,2.5765808539941593
2026-06-22T19:37:45.563902,1782137265.563863,0,0,0,1698,3.1908616286138023
2026-06-22T19:37:45.563946,1782137265.5639071,0,0,0,1712,3.7351722208226144
2026-06-22T19:37:45.563990,1782137265.563951,16,0,0,1706,4.210127901162393
2026-06-22T19:37:45.564032,1782137265.563995,39,0,0,1695,4.5728326127886305
2026-06-22T19:37:45.564076,1782137265.564037,10,0,0,1705,4.684333825641516
2026-06-22T19:37:45.564128,1782137265.5640829,64,0,0,1706,4.475800061398114
2026-06-22T19:37:45.564173,1782137265.5641332,15,0,0,1712,4.082099765550049
2026-06-22T19:37:45.564219,1782137265.564178,62,0,0,1701,3.7258325895095608
2026-06-22T19:37:45.614932,1782137265.6148212,22,0,0,1693,3.492052464759854
2026-06-22T19:37:45.614999,1782137265.614953,7,0,0,1696,3.2970378920483645
2026-06-22T19:37:45.615050,1782137265.615008,0,0,0,1714,3.0343299357006144
2026-06-22T19:37:45.615108,1782137265.6150558,68,0,0,1712,2.6776322307634426
2026-06-22T19:37:45.667011,1782137265.666754,29,0,0,1696,2.30273622366089
2026-06-22T19:37:45.667147,1782137265.6670358,5,0,0,1694,2.0581157899633107
2026-06-22T19:37:45.667273,1782137265.667202,16,0,0,1701,2.079910843031727
2026-06-22T19:37:45.720508,1782137265.720362,64,0,0,1710,2.4044931308670106
2026-06-22T19:37:45.720591,1782137265.720532,2,0,0,1710,2.928506586088452
2026-06-22T19:37:45.720651,1782137265.720601,16,0,0,1695,3.4381428885199927
2026-06-22T19:37:45.771069,1782137265.770964,16,0,0,1683,3.7118294895474024
2026-06-22T19:37:45.771133,1782137265.771086,77,0,0,1713,3.628700424690333
2026-06-22T19:37:45.771194,1782137265.771141,4,0,0,1707,3.2469093022452675
2026-06-22T19:37:45.771255,1782137265.7712,14,0,0,1718,2.8639419688964707
2026-06-22T19:37:45.822554,1782137265.8224158,2,0,0,1693,2.892546498924549
2026-06-22T19:37:45.822626,1782137265.822578,41,0,0,1693,3.4891909461974673
2026-06-22T19:37:45.822679,1782137265.822634,0,0,0,1703,4.362035002796073
2026-06-22T19:37:45.875092,1782137265.874899,0,0,0,1712,5.038873956121935
2026-06-22T19:37:45.875170,1782137265.875116,20,0,0,1696,5.2471116513869624
2026-06-22T19:37:45.875221,1782137265.875179,42,0,0,1693,5.023565928417977
2026-06-22T19:37:45.927306,1782137265.9269881,10,0,0,1699,4.566161522054258
2026-06-22T19:37:45.927382,1782137265.927328,0,0,0,1712,4.060835670288022
2026-06-22T19:37:45.927445,1782137265.927392,10,0,0,1705,3.6406172826062546
2026-06-22T19:37:45.927498,1782137265.927453,32,0,0,1697,3.3921110598958166
2026-06-22T19:37:45.979579,1782137265.9781451,15,0,0,1693,3.3120840082422425
2026-06-22T19:37:45.980307,1782137265.9798899,22,0,0,1706,3.3155812991428917
2026-06-22T19:37:45.980772,1782137265.9803321,1,0,0,1712,3.3217139915895726
2026-06-22T19:37:46.032114,1782137266.031393,0,0,0,1703,3.2704897945907234
2026-06-22T19:37:46.032531,1782137266.032168,16,0,0,1686,3.1033582567404423
2026-06-22T19:37:46.032841,1782137266.032546,16,0,0,1702,2.831748939032235
2026-06-22T19:37:46.084879,1782137266.084737,51,0,0,1709,2.5686957868289033
2026-06-22T19:37:46.084948,1782137266.084898,16,0,0,1709,2.436662660251311
2026-06-22T19:37:46.085001,1782137266.084957,25,0,0,1699,2.4888360749324296
2026-06-22T19:37:46.085050,1782137266.0850072,15,0,0,1689,2.7200016873878963
2026-06-22T19:37:46.136066,1782137266.135865,9,0,0,1697,3.0865417336364844
2026-06-22T19:37:46.136155,1782137266.136092,0,0,0,1710,3.4854270942401184
2026-06-22T19:37:46.136225,1782137266.1361668,62,0,0,1708,3.7914414680250994
2026-06-22T19:37:46.188159,1782137266.18803,16,0,0,1697,3.929534279326129
2026-06-22T19:37:46.188243,1782137266.188182,23,0,0,1695,3.8702866188431644
2026-06-22T19:37:46.188294,1782137266.188253,13,0,0,1696,3.6434763705645135
2026-06-22T19:37:46.241000,1782137266.240884,80,0,0,1712,3.3810177602972917
2026-06-22T19:37:46.241084,1782137266.241023,0,0,0,1710,3.238734638238834
2026-06-22T19:37:46.241147,1782137266.2410939,17,0,0,1693,3.270703903013822
2026-06-22T19:37:46.292458,1782137266.291758,17,0,0,1696,3.425825112791645
2026-06-22T19:37:46.292546,1782137266.2924821,94,0,0,1705,3.619906721153272
2026-06-22T19:37:46.292612,1782137266.292556,3,0,0,1710,3.7855312175438147
2026-06-22T19:37:46.292672,1782137266.29262,9,0,0,1702,3.8913712250795665
2026-06-22T19:37:46.344282,1782137266.3441558,20,0,0,1685,3.926606359910242
2026-06-22T19:37:46.344360,1782137266.3443048,48,0,0,1712,3.871277650827861
2026-06-22T19:37:46.344423,1782137266.34437,0,0,0,1704,3.7561967628605224
2026-06-22T19:37:46.397191,1782137266.3970602,0,0,0,1719,3.7957914162655593
2026-06-22T19:37:46.397263,1782137266.3972118,16,0,0,1703,4.287579434651024
2026-06-22T19:37:46.397318,1782137266.397272,47,0,0,1687,5.230279866420038
2026-06-22T19:37:46.447765,1782137266.4475698,11,0,0,1697,6.185226319884722
2026-06-22T19:37:46.447842,1782137266.447788,0,0,0,1710,6.645242110626394
2026-06-22T19:37:46.448010,1782137266.447851,2,0,0,1709,6.444653209971026
2026-06-22T19:37:46.448798,1782137266.4480221,47,0,0,1697,5.754449193560222
2026-06-22T19:37:46.500090,1782137266.49999,20,0,0,1696,4.840824274394996
2026-06-22T19:37:46.500155,1782137266.500106,28,0,0,1707,3.949276520345473
2026-06-22T19:37:46.500205,1782137266.5001621,10,0,0,1712,3.2858523247268976
2026-06-22T19:37:46.551368,1782137266.551123,16,0,0,1713,2.947333625607095
2026-06-22T19:37:46.551478,1782137266.5513961,0,0,0,1696,2.870713022719386
2026-06-22T19:37:46.551600,1782137266.551491,15,0,0,1697,2.890972498975328
2026-06-22T19:37:46.602505,1782137266.60239,64,0,0,1702,2.853275897089538
2026-06-22T19:37:46.602589,1782137266.602529,7,0,0,1712,2.6971198419413502
2026-06-22T19:37:46.602644,1782137266.602599,0,0,0,1703,2.4619578317103628
2026-06-22T19:37:46.653173,1782137266.652928,19,0,0,1711,2.2281298380897385
2026-06-22T19:37:46.653689,1782137266.6532228,5,0,0,1687,2.084470898567448
2026-06-22T19:37:46.654066,1782137266.6537259,0,0,0,1708,2.136925212009862
2026-06-22T19:37:46.654528,1782137266.65419,16,0,0,1715,2.4758682300110433
2026-06-22T19:37:46.705092,1782137266.704847,7,0,0,1700,3.0944088028927506
2026-06-22T19:37:46.705173,1782137266.705119,22,0,0,1690,3.877087030361324
2026-06-22T19:37:46.705229,1782137266.705184,16,0,0,1693,4.709998095824612
2026-06-22T19:37:46.757739,1782137266.757617,47,0,0,1712,5.510365856436625
2026-06-22T19:37:46.757821,1782137266.7577631,0,0,0,1709,6.118669325067086
2026-06-22T19:37:46.757886,1782137266.7578309,18,0,0,1682,6.356970195358351
2026-06-22T19:37:46.809430,1782137266.809332,18,0,0,1685,6.232862493157723
2026-06-22T19:37:46.809498,1782137266.8094451,114,0,0,1707,5.928647678577083
2026-06-22T19:37:46.809557,1782137266.809506,0,0,0,1712,5.63441840012619
2026-06-22T19:37:46.809613,1782137266.8095639,5,0,0,1713,5.510181810284446
2026-06-22T19:37:46.860545,1782137266.860429,22,0,0,1690,5.685696759338965
2026-06-22T19:37:46.860630,1782137266.860576,71,0,0,1698,6.1228839068730325
2026-06-22T19:37:46.860688,1782137266.8606389,2,0,0,1709,6.573216331549344
2026-06-22T19:37:46.912208,1782137266.9121122,0,0,0,1714,6.7911611875321425
2026-06-22T19:37:46.912278,1782137266.912224,15,0,0,1706,6.6715120787544455
2026-06-22T19:37:46.912330,1782137266.912287,64,0,0,1692,6.188902527826332
2026-06-22T19:37:46.965222,1782137266.96513,17,0,0,1695,5.379675429621322
2026-06-22T19:37:46.965291,1782137266.965238,0,0,0,1714,4.3632270426274316
2026-06-22T19:37:46.965351,1782137266.965299,4,0,0,1712,3.318810054381098
2026-06-22T19:37:47.015848,1782137267.015672,59,0,0,1694,2.4669750924452916
2026-06-22T19:37:47.015942,1782137267.015882,16,0,0,1687,2.023196298458386
2026-06-22T19:37:47.016007,1782137267.0159519,21,0,0,1706,2.081336024408262
2026-06-22T19:37:47.016067,1782137267.016015,0,0,0,1712,2.5499288339586292
2026-06-22T19:37:47.067407,1782137267.067285,16,0,0,1711,3.250860270915355
2026-06-22T19:37:47.067478,1782137267.067425,30,0,0,1696,4.0273099071015
2026-06-22T19:37:47.067534,1782137267.067487,15,0,0,1693,4.702308825581401
2026-06-22T19:37:47.119416,1782137267.119303,36,0,0,1705,5.042056015493581
2026-06-22T19:37:47.119484,1782137267.119432,17,0,0,1712,4.8862879091315286
2026-06-22T19:37:47.119539,1782137267.119492,7,0,0,1703,4.292525550317877
2026-06-22T19:37:47.171452,1782137267.17135,27,0,0,1701,3.503287025410216
2026-06-22T19:37:47.171521,1782137267.171468,16,0,0,1694,2.803604967965768
2026-06-22T19:37:47.171577,1782137267.171532,15,0,0,1685,2.3945949066620758
2026-06-22T19:37:47.222360,1782137267.222232,15,0,0,1733,2.3343837689585296
2026-06-22T19:37:47.222444,1782137267.222382,16,0,0,1712,2.6394064482545034
2026-06-22T19:37:47.222509,1782137267.222454,22,0,0,1680,3.4500101253656323
2026-06-22T19:37:47.222572,1782137267.222517,18,0,0,1699,4.93005896569858
2026-06-22T19:37:47.274327,1782137267.274205,16,0,0,1705,7.005359455559537
2026-06-22T19:37:47.274410,1782137267.274344,10,0,0,1708,9.334278213141893
2026-06-22T19:37:47.274474,1782137267.27442,3,0,0,1699,11.399112674786068
2026-06-22T19:37:47.324903,1782137267.3248,26,0,0,1693,12.595593368083538
2026-06-22T19:37:47.324967,1782137267.324917,70,0,0,1707,12.482542363990586
2026-06-22T19:37:47.325023,1782137267.324975,0,0,0,1710,11.041958054400332
2026-06-22T19:37:47.376740,1782137267.3766541,7,0,0,1711,8.717509613127465
2026-06-22T19:37:47.376804,1782137267.3767538,18,0,0,1700,6.20519216664843
2026-06-22T19:37:47.376860,1782137267.376812,75,0,0,1700,4.093781371913738
2026-06-22T19:37:47.376912,1782137267.376866,0,0,0,1702,2.6325836592328793
2026-06-22T19:37:47.427148,1782137267.427041,0,0,0,1712,1.7863246950229965
2026-06-22T19:37:47.427229,1782137267.427169,15,0,0,1703,1.3947094003632319
2026-06-22T19:37:47.427295,1782137267.427239,73,0,0,1697,1.2722664276869036
2026-06-22T19:37:47.478903,1782137267.478786,15,0,0,1694,1.2774059633217685
2026-06-22T19:37:47.478972,1782137267.4789178,0,0,0,1715,1.3310679621680763
2026-06-22T19:37:47.479033,1782137267.478981,3,0,0,1710,1.392158446944743
2026-06-22T19:37:47.529420,1782137267.529322,64,0,0,1697,1.4857871655486963
2026-06-22T19:37:47.529480,1782137267.5294342,16,0,0,1694,1.7152671372360282
2026-06-22T19:37:47.529531,1782137267.5294871,25,0,0,1699,2.175365186350887
2026-06-22T19:37:47.581607,1782137267.581504,5,0,0,1705,2.8559539025846017
2026-06-22T19:37:47.581682,1782137267.581623,35,0,0,1711,3.5946098875582626
2026-06-22T19:37:47.581739,1782137267.5816908,11,0,0,1698,4.116765176109178
2026-06-22T19:37:47.581793,1782137267.5817459,2,0,0,1702,4.195057226605151
2026-06-22T19:37:47.632693,1782137267.632565,37,0,0,1702,3.8056914643921163
2026-06-22T19:37:47.632770,1782137267.632711,19,0,0,1715,3.1318526057154106
2026-06-22T19:37:47.632833,1782137267.6327791,14,0,0,1712,2.411042760230604
2026-06-22T19:37:47.684538,1782137267.684424,17,0,0,1691,1.7812519456310154
2026-06-22T19:37:47.684612,1782137267.684556,18,0,0,1711,1.3015447702269605
2026-06-22T19:37:47.684674,1782137267.684621,0,0,0,1698,1.128328183612882
2026-06-22T19:37:47.737174,1782137267.737071,14,0,0,1711,1.5788379118983644
2026-06-22T19:37:47.737243,1782137267.737192,25,0,0,1699,2.8539999719869074
2026-06-22T19:37:47.737300,1782137267.737252,23,0,0,1683,4.677597440089753
2026-06-22T19:37:47.787639,1782137267.787551,32,0,0,1702,6.358054970682298
2026-06-22T19:37:47.787701,1782137267.7876532,2,0,0,1702,7.291957542167301
2026-06-22T19:37:47.787754,1782137267.7877078,5,0,0,1710,7.383629943018925
2026-06-22T19:37:47.787805,1782137267.78776,11,0,0,1706,6.947958705310619
2026-06-22T19:37:47.838980,1782137267.838868,18,0,0,1689,6.288148824906024
2026-06-22T19:37:47.839056,1782137267.8390012,43,0,0,1731,5.51145311966476
2026-06-22T19:37:47.839115,1782137267.839066,6,0,0,1709,4.750515015988869
2026-06-22T19:37:47.891406,1782137267.8913128,3,0,0,1712,4.392455700625039
2026-06-22T19:37:47.891478,1782137267.89142,19,0,0,1696,4.861534006239081
2026-06-22T19:37:47.891541,1782137267.891486,50,0,0,1694,6.097919681934194
2026-06-22T19:37:47.943072,1782137267.9429278,0,0,0,1693,7.448470262298688
2026-06-22T19:37:47.943151,1782137267.943091,12,0,0,1712,8.146195086385664
2026-06-22T19:37:47.943214,1782137267.94316,10,0,0,1709,7.775510583965174
2026-06-22T19:37:47.993895,1782137267.993769,71,0,0,1693,6.392460139955875
2026-06-22T19:37:47.993968,1782137267.993917,15,0,0,1698,4.440757746327125
2026-06-22T19:37:47.994024,1782137267.993978,0,0,0,1702,2.6036275449641395
2026-06-22T19:37:47.994077,1782137267.9940321,0,0,0,1712,1.5595412649321756
2026-06-22T19:37:48.045705,1782137268.04554,68,0,0,1697,1.6131009155733722
2026-06-22T19:37:48.045786,1782137268.04573,16,0,0,1694,2.523644685834613
2026-06-22T19:37:48.045847,1782137268.0457962,15,0,0,1699,3.7815250748203035
2026-06-22T19:37:48.098051,1782137268.097895,14,0,0,1705,4.951392524086353
2026-06-22T19:37:48.098132,1782137268.098072,48,0,0,1707,5.721948066450543
2026-06-22T19:37:48.098195,1782137268.098141,28,0,0,1697,5.871514645326163
2026-06-22T19:37:48.148935,1782137268.148798,16,0,0,1692,5.350246244839098
2026-06-22T19:37:48.149015,1782137268.1489549,16,0,0,1712,4.3226671657991576
2026-06-22T19:37:48.149080,1782137268.149027,43,0,0,1706,3.104774421698546
2026-06-22T19:37:48.149137,1782137268.149088,10,0,0,1712,2.1234849228577226
2026-06-22T19:37:48.200090,1782137268.199967,11,0,0,1691,1.8071433879491918
2026-06-22T19:37:48.200158,1782137268.200108,16,0,0,1699,2.308697764293415
2026-06-22T19:37:48.200212,1782137268.200166,0,0,0,1709,3.3695262184631556
2026-06-22T19:37:48.252168,1782137268.252001,16,0,0,1707,4.521317340720679
2026-06-22T19:37:48.252237,1782137268.2521868,14,0,0,1721,5.3701551403814
2026-06-22T19:37:48.252290,1782137268.252245,13,0,0,1694,5.766079303883232
2026-06-22T19:37:48.303852,1782137268.303749,25,0,0,1705,5.837260661744838
2026-06-22T19:37:48.303924,1782137268.303869,20,0,0,1706,5.854623698554003
2026-06-22T19:37:48.303984,1782137268.303933,1,0,0,1712,5.995462844311534
2026-06-22T19:37:48.354238,1782137268.354115,14,0,0,1702,6.180908213204919
2026-06-22T19:37:48.354320,1782137268.354261,34,0,0,1692,6.143878827071023
2026-06-22T19:37:48.354383,1782137268.35433,48,0,0,1705,5.673846752845569
2026-06-22T19:37:48.354443,1782137268.354391,0,0,0,1706,4.805144692421594
2026-06-22T19:37:48.405548,1782137268.405422,12,0,0,1709,3.837803232551922
2026-06-22T19:37:48.405628,1782137268.40557,30,0,0,1694,3.15267183848324
2026-06-22T19:37:48.405692,1782137268.40564,11,0,0,1693,2.913145785691984
2026-06-22T19:37:48.456668,1782137268.4565692,0,0,0,1705,2.9886467974641477
2026-06-22T19:37:48.456736,1782137268.456684,14,0,0,1708,3.160551845523375
2026-06-22T19:37:48.456791,1782137268.456745,13,0,0,1705,3.296210733910058
2026-06-22T19:37:48.507165,1782137268.507066,49,0,0,1694,3.3543408330087203
2026-06-22T19:37:48.507236,1782137268.507183,0,0,0,1698,3.3155930543182786
2026-06-22T19:37:48.507294,1782137268.507245,0,0,0,1703,3.144920596113405
2026-06-22T19:37:48.558656,1782137268.55836,13,0,0,1712,2.8358547810552692
2026-06-22T19:37:48.558818,1782137268.558709,61,0,0,1703,2.440592452067392
2026-06-22T19:37:48.558890,1782137268.5588312,26,0,0,1695,2.0236590583621106
2026-06-22T19:37:48.558957,1782137268.558898,15,0,0,1697,1.638243969679906
2026-06-22T19:37:48.609964,1782137268.609854,22,0,0,1705,1.341154509957812
2026-06-22T19:37:48.610038,1782137268.609982,53,0,0,1712,1.1855609233652482
2026-06-22T19:37:48.610097,1782137268.610046,17,0,0,1694,1.186260523363683
2026-06-22T19:37:48.662048,1782137268.661941,15,0,0,1685,1.305988902020045
2026-06-22T19:37:48.662118,1782137268.662064,10,0,0,1679,1.5211777208531483
2026-06-22T19:37:48.662175,1782137268.662126,51,0,0,1707,1.849334644390947
2026-06-22T19:37:48.715301,1782137268.715212,15,0,0,1727,2.256553411254229
2026-06-22T19:37:48.715362,1782137268.715314,16,0,0,1698,2.6348159641759024
2026-06-22T19:37:48.715417,1782137268.715372,10,0,0,1695,2.931751317870341
2026-06-22T19:37:48.766122,1782137268.766023,11,0,0,1706,3.27781825293293
2026-06-22T19:37:48.766193,1782137268.7661371,5,0,0,1707,3.9126990341445356
2026-06-22T19:37:48.766255,1782137268.7662039,9,0,0,1712,4.93120160790619
2026-06-22T19:37:48.766313,1782137268.766262,38,0,0,1691,6.137129298149845
2026-06-22T19:37:48.817144,1782137268.8170419,32,0,0,1698,7.116779811150826
2026-06-22T19:37:48.817213,1782137268.817159,5,0,0,1711,7.472543573742335
2026-06-22T19:37:48.817271,1782137268.8172202,0,0,0,1710,7.097070464488691
2026-06-22T19:37:48.868916,1782137268.8688362,19,0,0,1707,6.2255025876208805
2026-06-22T19:37:48.868976,1782137268.868928,23,0,0,1699,5.2358941174107985
2026-06-22T19:37:48.869029,1782137268.868983,43,0,0,1712,4.401157879544286
2026-06-22T19:37:48.920744,1782137268.920651,4,0,0,1709,3.7759142534311767
2026-06-22T19:37:48.920806,1782137268.920759,15,0,0,1744,3.340435183279812
2026-06-22T19:37:48.920859,1782137268.920814,29,0,0,1702,3.2121474261129928
2026-06-22T19:37:48.971687,1782137268.9716039,16,0,0,1710,3.644605572688955
2026-06-22T19:37:48.971751,1782137268.9717,3,0,0,1690,4.840280959595233
2026-06-22T19:37:48.971807,1782137268.971759,2,0,0,1682,6.688639202910422
2026-06-22T19:37:48.971862,1782137268.971814,16,0,0,1699,8.637715773004945
2026-06-22T19:37:49.023707,1782137269.023587,21,0,0,1694,9.994172337270367
2026-06-22T19:37:49.023789,1782137269.023726,19,0,0,1709,10.424392736215943
2026-06-22T19:37:49.023858,1782137269.023799,0,0,0,1707,10.079112933994221
2026-06-22T19:37:49.075884,1782137269.075775,9,0,0,1710,9.298441064801851
2026-06-22T19:37:49.075971,1782137269.075912,48,0,0,1707,8.318623340701377
2026-06-22T19:37:49.076036,1782137269.075982,26,0,0,1698,7.210636017932821
2026-06-22T19:37:49.126240,1782137269.126142,16,0,0,1703,5.973582765817692
2026-06-22T19:37:49.126306,1782137269.1262562,16,0,0,1703,4.646960057826921
2026-06-22T19:37:49.126360,1782137269.126314,58,0,0,1707,3.354948098271456
2026-06-22T19:37:49.126412,1782137269.126367,11,0,0,1707,2.250710963930526
2026-06-22T19:37:49.177408,1782137269.1773179,2,0,0,1698,1.4386334305871338
2026-06-22T19:37:49.177476,1782137269.177424,5,0,0,1701,0.9662210004898529
2026-06-22T19:37:49.177535,1782137269.177484,57,0,0,1701,0.8537502479467294
2026-06-22T19:37:49.229535,1782137269.229408,12,0,0,1703,1.0851281895691245
2026-06-22T19:37:49.229613,1782137269.229553,10,0,0,1709,1.5527808202356312
2026-06-22T19:37:49.229678,1782137269.2296221,11,0,0,1703,2.0490695241666357
2026-06-22T19:37:49.282926,1782137269.282801,9,0,0,1664,2.3688478009940033
2026-06-22T19:37:49.283009,1782137269.282953,2,0,0,1719,2.4756632039595754
2026-06-22T19:37:49.283068,1782137269.283017,16,0,0,1701,2.6864927763754407
2026-06-22T19:37:49.333853,1782137269.3337688,13,0,0,1698,3.642843547329041
2026-06-22T19:37:49.333916,1782137269.333866,39,0,0,1697,5.776366706504768
2026-06-22T19:37:49.333971,1782137269.333923,2,0,0,1710,8.741529524044207
2026-06-22T19:37:49.334024,1782137269.333977,19,0,0,1709,11.557864305484346
2026-06-22T19:37:49.385456,1782137269.385359,21,0,0,1699,13.221403108616496
2026-06-22T19:37:49.385520,1782137269.385472,32,0,0,1696,13.180956543252963
2026-06-22T19:37:49.385573,1782137269.385529,39,0,0,1705,11.56860052212395
2026-06-22T19:37:49.437058,1782137269.4369578,6,0,0,1709,9.091606860983372
2026-06-22T19:37:49.437133,1782137269.437073,7,0,0,1698,6.553456229674206
2026-06-22T19:37:49.437196,1782137269.4371421,34,0,0,1701,4.467292101108179
2026-06-22T19:37:49.488067,1782137269.487948,0,0,0,1696,3.1047467311897567
2026-06-22T19:37:49.488146,1782137269.488086,0,0,0,1699,2.6307904766999815
2026-06-22T19:37:49.488208,1782137269.4881558,10,0,0,1728,2.978330589114689
2026-06-22T19:37:49.488268,1782137269.4882162,25,0,0,1702,3.762303786205841
2026-06-22T19:37:49.539135,1782137269.539027,16,0,0,1696,4.552202347855735
2026-06-22T19:37:49.539204,1782137269.5391529,9,0,0,1695,5.164234518471932
2026-06-22T19:37:49.539259,1782137269.539212,0,0,0,1703,5.586763285665229
2026-06-22T19:37:49.590759,1782137269.5906508,17,0,0,1702,5.808795854876955
2026-06-22T19:37:49.590825,1782137269.5907772,20,0,0,1706,5.81482921427496
2026-06-22T19:37:49.590955,1782137269.5908961,16,0,0,1687,5.575513408717985
2026-06-22T19:37:49.642428,1782137269.642307,21,0,0,1709,5.034869452055524
2026-06-22T19:37:49.642511,1782137269.642456,16,0,0,1698,4.224579782524488
2026-06-22T19:37:49.642570,1782137269.642522,34,0,0,1705,3.3658232445133263
2026-06-22T19:37:49.693144,1782137269.693037,13,0,0,1700,2.761228205474276
2026-06-22T19:37:49.693230,1782137269.6931572,10,0,0,1694,2.578689104019758
2026-06-22T19:37:49.693290,1782137269.693238,15,0,0,1696,2.7975245595921465
2026-06-22T19:37:49.693350,1782137269.6932979,55,0,0,1707,3.307577059678158
2026-06-22T19:37:49.744326,1782137269.744215,0,0,0,1709,3.957532617566736
2026-06-22T19:37:49.744392,1782137269.74434,11,0,0,1686,4.544257820538233
2026-06-22T19:37:49.744449,1782137269.7443998,5,0,0,1693,4.901209786455782
2026-06-22T19:37:49.796355,1782137269.7962408,32,0,0,1698,5.085337785040414
2026-06-22T19:37:49.796434,1782137269.796381,12,0,0,1707,5.357091423463736
2026-06-22T19:37:49.796487,1782137269.796442,16,0,0,1712,5.831439224274334
2026-06-22T19:37:49.849599,1782137269.849497,11,0,0,1677,6.247829612280672
2026-06-22T19:37:49.849668,1782137269.849618,53,0,0,1694,6.221099787893527
2026-06-22T19:37:49.849722,1782137269.849677,5,0,0,1712,5.67809922151314
2026-06-22T19:37:49.899923,1782137269.899799,15,0,0,1711,4.964131571145634
2026-06-22T19:37:49.900007,1782137269.8999429,11,0,0,1698,4.548794957063094
2026-06-22T19:37:49.900076,1782137269.9000168,44,0,0,1682,4.695286944634761
2026-06-22T19:37:49.900142,1782137269.900084,49,0,0,1682,5.295735982880813
2026-06-22T19:37:49.951622,1782137269.951492,14,0,0,1707,5.913828756347958
2026-06-22T19:37:49.951698,1782137269.9516401,5,0,0,1701,6.098931366871548
2026-06-22T19:37:49.951760,1782137269.951707,23,0,0,1703,5.71411302608535
2026-06-22T19:37:50.004303,1782137270.0041971,15,0,0,1693,4.954036181800678
2026-06-22T19:37:50.004369,1782137270.004318,4,0,0,1699,4.115255197909661
2026-06-22T19:37:50.004427,1782137270.004378,15,0,0,1718,3.3907710122970633
2026-06-22T19:37:50.055613,1782137270.055491,30,0,0,1699,2.86342070782691
2026-06-22T19:37:50.055707,1782137270.055653,20,0,0,1698,2.639251431612518
2026-06-22T19:37:50.055765,1782137270.0557172,16,0,0,1699,2.906426516329762
2026-06-22T19:37:50.055818,1782137270.055773,0,0,0,1707,3.748130957630667
2026-06-22T19:37:50.106850,1782137270.106713,18,0,0,1710,4.895917819191472
2026-06-22T19:37:50.106922,1782137270.106872,19,0,0,1701,5.810863524456526
2026-06-22T19:37:50.106976,1782137270.10693,4,0,0,1697,6.048858553562771
2026-06-22T19:37:50.157515,1782137270.157399,17,0,0,1701,5.513813367771623
2026-06-22T19:37:50.157616,1782137270.157564,16,0,0,1696,4.432612771213665
2026-06-22T19:37:50.157669,1782137270.1576252,15,0,0,1710,3.204168668390897
2026-06-22T19:37:50.210602,1782137270.2104902,19,0,0,1698,2.2526098980849705
2026-06-22T19:37:50.210676,1782137270.2106209,17,0,0,1698,1.8752268487909625
2026-06-22T19:37:50.210735,1782137270.210685,16,0,0,1686,2.113234090281781
2026-06-22T19:37:50.261045,1782137270.260931,29,0,0,1690,2.731891949161231
2026-06-22T19:37:50.261122,1782137270.261065,9,0,0,1709,3.3416533833900037
2026-06-22T19:37:50.261183,1782137270.261131,17,0,0,1712,3.6195178926691125
2026-06-22T19:37:50.261238,1782137270.26119,12,0,0,1699,3.510076068119776
2026-06-22T19:37:50.312255,1782137270.31215,15,0,0,1706,3.2263653863676347
2026-06-22T19:37:50.312331,1782137270.3122718,0,0,0,1706,3.0435416284273242
2026-06-22T19:37:50.312388,1782137270.31234,15,0,0,1705,3.107549085447009
2026-06-22T19:37:50.364502,1782137270.364367,16,0,0,1703,3.388906593107425
2026-06-22T19:37:50.364586,1782137270.364522,67,0,0,1699,3.7480012127466176
2026-06-22T19:37:50.364655,1782137270.364596,1,0,0,1707,4.029732668279738
2026-06-22T19:37:50.417777,1782137270.4176798,0,0,0,1723,4.116603430492347
2026-06-22T19:37:50.417846,1782137270.417791,16,0,0,1712,3.9608851709510233
2026-06-22T19:37:50.417904,1782137270.417854,48,0,0,1694,3.6023900064926355
2026-06-22T19:37:50.417960,1782137270.417911,46,0,0,1708,3.160654288652245
2026-06-22T19:37:50.468987,1782137270.4687848,15,0,0,1698,2.8544701901250176
2026-06-22T19:37:50.469123,1782137270.4690292,9,0,0,1709,2.99666659141667
2026-06-22T19:37:50.469210,1782137270.4691432,54,0,0,1701,3.7976841224591107
2026-06-22T19:37:50.520028,1782137270.519827,3,0,0,1694,5.077179117079883
2026-06-22T19:37:50.520173,1782137270.520072,6,0,0,1707,6.273546407825498
2026-06-22T19:37:50.520247,1782137270.52019,11,0,0,1696,6.826956726193769
2026-06-22T19:37:50.573107,1782137270.572959,39,0,0,1701,6.565812927781975
2026-06-22T19:37:50.573193,1782137270.573131,15,0,0,1697,5.750453833670207
2026-06-22T19:37:50.573251,1782137270.573206,13,0,0,1702,4.770776973112526
2026-06-22T19:37:50.623653,1782137270.623483,0,0,0,1703,3.853998973495561
2026-06-22T19:37:50.623731,1782137270.623678,24,0,0,1699,3.045901842531076
2026-06-22T19:37:50.623787,1782137270.623741,12,0,0,1702,2.346419117775265
2026-06-22T19:37:50.623838,1782137270.623795,6,0,0,1692,1.8191317621551655
2026-06-22T19:37:50.675035,1782137270.674919,16,0,0,1699,1.5994921927775951
2026-06-22T19:37:50.675133,1782137270.6750588,13,0,0,1702,1.7931173073597364
2026-06-22T19:37:50.675206,1782137270.675147,1,0,0,1708,2.3549407320425395
2026-06-22T19:37:50.727512,1782137270.727299,13,0,0,1712,3.055140953183907
2026-06-22T19:37:50.727612,1782137270.727552,18,0,0,1696,3.568961709006673
2026-06-22T19:37:50.727675,1782137270.727625,16,0,0,1701,3.661290825843369
2026-06-22T19:37:50.780265,1782137270.780096,14,0,0,1706,3.344329457701327
2026-06-22T19:37:50.780352,1782137270.780295,0,0,0,1707,2.8519626333886787
2026-06-22T19:37:50.780412,1782137270.780365,16,0,0,1707,2.454445045745451
2026-06-22T19:37:50.780479,1782137270.780431,16,0,0,1691,2.310467589612031
2026-06-22T19:37:50.831369,1782137270.8312562,0,0,0,1700,2.4401530094529367
2026-06-22T19:37:50.831438,1782137270.83139,3,0,0,1708,2.7781251471720823
2026-06-22T19:37:50.831495,1782137270.8314471,6,0,0,1705,3.2360132527807766
2026-06-22T19:37:50.883084,1782137270.882981,28,0,0,1685,3.68584180813135
2026-06-22T19:37:50.883153,1782137270.883103,61,0,0,1696,3.9653698108566084
2026-06-22T19:37:50.883205,1782137270.883162,0,0,0,1703,4.0317284410092
2026-06-22T19:37:50.936220,1782137270.936098,15,0,0,1707,4.033869809536257
2026-06-22T19:37:50.936318,1782137270.936241,23,0,0,1707,4.11689466122056
2026-06-22T19:37:50.936382,1782137270.93633,78,0,0,1695,4.244997468408454
2026-06-22T19:37:50.986964,1782137270.9868429,43,0,0,1699,4.270376009985825
2026-06-22T19:37:50.987042,1782137270.986984,11,0,0,1702,4.077644326608892
2026-06-22T19:37:50.987114,1782137270.987061,9,0,0,1710,3.661744464953435
2026-06-22T19:37:50.987173,1782137270.9871218,58,0,0,1697,3.1139268987805466
2026-06-22T19:37:51.038620,1782137271.038504,16,0,0,1697,2.546380047221929
2026-06-22T19:37:51.038690,1782137271.038639,0,0,0,1702,2.071142989244532
2026-06-22T19:37:51.038747,1782137271.038699,2,0,0,1709,1.8001440689990642
2026-06-22T19:37:51.091277,1782137271.0911639,39,0,0,1705,1.7822072643283757
2026-06-22T19:37:51.091344,1782137271.091294,14,0,0,1685,1.952884837615064
2026-06-22T19:37:51.091398,1782137271.091352,15,0,0,1701,2.1814295647410304
2026-06-22T19:37:51.142622,1782137271.142538,0,0,0,1697,2.4208383325616554
2026-06-22T19:37:51.142690,1782137271.142637,34,0,0,1707,2.807889321554051
2026-06-22T19:37:51.142746,1782137271.1426969,10,0,0,1726,3.4948069705624176
2026-06-22T19:37:51.142801,1782137271.1427531,13,0,0,1681,4.408597308902305
2026-06-22T19:37:51.193696,1782137271.1936152,37,0,0,1699,5.368699237586089
2026-06-22T19:37:51.193777,1782137271.193717,18,0,0,1710,6.3937203054060125
2026-06-22T19:37:51.193848,1782137271.193793,10,0,0,1698,7.63300377006058
2026-06-22T19:37:51.245309,1782137271.245209,16,0,0,1703,9.029960892715165
2026-06-22T19:37:51.245373,1782137271.245321,18,0,0,1694,10.290009317384323
2026-06-22T19:37:51.245430,1782137271.245381,25,0,0,1701,11.077575129974713
2026-06-22T19:37:51.298390,1782137271.298285,4,0,0,1702,11.084462057201373
2026-06-22T19:37:51.298453,1782137271.298404,15,0,0,1717,10.132698980903832
2026-06-22T19:37:51.298512,1782137271.298461,4,0,0,1681,8.384303130247101
2026-06-22T19:37:51.348925,1782137271.348844,38,0,0,1698,6.380340196617707
2026-06-22T19:37:51.348985,1782137271.348937,0,0,0,1696,4.845075506380451
2026-06-22T19:37:51.349038,1782137271.348992,15,0,0,1715,4.322878337894336
2026-06-22T19:37:51.349091,1782137271.349045,16,0,0,1711,4.790064177339957
2026-06-22T19:37:51.400253,1782137271.400098,17,0,0,1701,5.640700948431828
2026-06-22T19:37:51.400337,1782137271.400277,46,0,0,1699,6.151812910975301
2026-06-22T19:37:51.400409,1782137271.4003499,0,0,0,1704,5.968275298579486
2026-06-22T19:37:51.452673,1782137271.452559,14,0,0,1707,5.21539482137148
2026-06-22T19:37:51.452749,1782137271.4526908,18,0,0,1710,4.245503542885838
2026-06-22T19:37:51.452815,1782137271.4527612,56,0,0,1692,3.31810708421732
2026-06-22T19:37:51.505017,1782137271.504917,51,0,0,1699,2.522909126028859
2026-06-22T19:37:51.505083,1782137271.5050318,0,0,0,1705,1.8992005821130442
2026-06-22T19:37:51.505137,1782137271.50509,10,0,0,1711,1.5114456328738164
2026-06-22T19:37:51.505190,1782137271.5051441,65,0,0,1701,1.4233389917350892
2026-06-22T19:37:51.556101,1782137271.555995,10,0,0,1679,1.6413506577496868
2026-06-22T19:37:51.556173,1782137271.556121,0,0,0,1705,2.0883230912295137
2026-06-22T19:37:51.556231,1782137271.556185,11,0,0,1701,2.7048990003693794
2026-06-22T19:37:51.606631,1782137271.606539,66,0,0,1706,3.6000004459632535
2026-06-22T19:37:51.606699,1782137271.606645,24,0,0,1701,4.903008150517796
2026-06-22T19:37:51.606759,1782137271.606709,7,0,0,1689,6.3919738197759735
2026-06-22T19:37:51.659425,1782137271.659339,0,0,0,1693,7.480604482735057
2026-06-22T19:37:51.659490,1782137271.659436,48,0,0,1712,7.640220484486049
2026-06-22T19:37:51.659550,1782137271.659497,0,0,0,1703,6.759791345308914
2026-06-22T19:37:51.709920,1782137271.709784,21,0,0,1693,5.2084324576450935
2026-06-22T19:37:51.709994,1782137271.7099378,22,0,0,1679,3.6297791989717885
2026-06-22T19:37:51.710052,1782137271.710002,18,0,0,1698,2.534509580096844
2026-06-22T19:37:51.710112,1782137271.7100601,0,0,0,1712,2.035220627787639
2026-06-22T19:37:51.761104,1782137271.7609768,19,0,0,1709,1.985649787894831
2026-06-22T19:37:51.761170,1782137271.7611232,16,0,0,1707,2.2253009278200673
2026-06-22T19:37:51.761221,1782137271.761177,25,0,0,1709,2.644798611896287
2026-06-22T19:37:51.811658,1782137271.8115609,7,0,0,1708,3.151354706911081
2026-06-22T19:37:51.811729,1782137271.8116758,2,0,0,1708,3.6245363718872836
2026-06-22T19:37:51.811787,1782137271.811738,14,0,0,1695,3.91163343710893
2026-06-22T19:37:51.864490,1782137271.864383,17,0,0,1702,3.889910813723031
2026-06-22T19:37:51.864858,1782137271.864795,0,0,0,1681,3.564922719993081
2026-06-22T19:37:51.864923,1782137271.8648698,10,0,0,1710,3.1408881122699746
2026-06-22T19:37:51.915208,1782137271.915091,15,0,0,1710,2.9586057974870577
2026-06-22T19:37:51.915278,1782137271.915224,19,0,0,1709,3.2717631549204658
2026-06-22T19:37:51.915337,1782137271.915286,12,0,0,1699,4.027987310829545
2026-06-22T19:37:51.915393,1782137271.9153438,0,0,0,1703,4.895749986078085
2026-06-22T19:37:51.966472,1782137271.966385,16,0,0,1706,5.500621342800417
2026-06-22T19:37:51.966534,1782137271.966485,11,0,0,1703,5.605179045400162
2026-06-22T19:37:51.966587,1782137271.96654,39,0,0,1698,5.182492226563404
2026-06-22T19:37:52.018565,1782137272.018475,53,0,0,1701,4.434206667744363
2026-06-22T19:37:52.018627,1782137272.01858,40,0,0,1691,3.663776208765589
2026-06-22T19:37:52.018679,1782137272.018636,43,0,0,1711,3.0717524918335255
2026-06-22T19:37:52.071880,1782137272.0717921,0,0,0,1691,2.709227588874088
2026-06-22T19:37:52.071945,1782137272.071894,21,0,0,1690,2.586005239129475
2026-06-22T19:37:52.072004,1782137272.0719528,0,0,0,1693,2.714460562657673
2026-06-22T19:37:52.122803,1782137272.122707,46,0,0,1708,3.0481880050729515
2026-06-22T19:37:52.122867,1782137272.122814,57,0,0,1710,3.4747652897882473
2026-06-22T19:37:52.122925,1782137272.122874,30,0,0,1701,3.8595305914617937
2026-06-22T19:37:52.122981,1782137272.122931,16,0,0,1697,4.062472139215081
2026-06-22T19:37:52.174705,1782137272.174589,14,0,0,1700,4.030367881590937
2026-06-22T19:37:52.174776,1782137272.174722,3,0,0,1697,3.877017664467974
2026-06-22T19:37:52.174835,1782137272.174784,9,0,0,1706,3.734655355601714
2026-06-22T19:37:52.227711,1782137272.22761,31,0,0,1699,3.577768615375866
2026-06-22T19:37:52.227775,1782137272.227728,29,0,0,1699,3.282740528497947
2026-06-22T19:37:52.227826,1782137272.227783,45,0,0,1722,2.798692749002948
2026-06-22T19:37:52.278204,1782137272.278096,16,0,0,1711,2.2672634994154763
2026-06-22T19:37:52.278272,1782137272.278222,80,0,0,1712,2.0432056874641926
2026-06-22T19:37:52.278325,1782137272.27828,26,0,0,1690,2.5035945301635416
2026-06-22T19:37:52.278375,1782137272.278332,0,0,0,1682,3.6946859109368266
2026-06-22T19:37:52.329589,1782137272.329473,0,0,0,1713,5.180319949544139
2026-06-22T19:37:52.329661,1782137272.3296099,30,0,0,1712,6.321936520525402
2026-06-22T19:37:52.329714,1782137272.32967,22,0,0,1699,6.7524478771006535
2026-06-22T19:37:52.381924,1782137272.381823,80,0,0,1694,6.579180779436657
2026-06-22T19:37:52.381988,1782137272.38194,15,0,0,1701,6.1684135398496975
2026-06-22T19:37:52.382040,1782137272.381996,23,0,0,1706,5.827271273525007
2026-06-22T19:37:52.433264,1782137272.433147,11,0,0,1709,5.6439104985429704
2026-06-22T19:37:52.433339,1782137272.4332821,0,0,0,1697,5.500480125014119
2026-06-22T19:37:52.433399,1782137272.4333482,17,0,0,1712,5.214457789183087
2026-06-22T19:37:52.483927,1782137272.483836,16,0,0,1701,4.711737525027136
2026-06-22T19:37:52.483998,1782137272.483948,3,0,0,1712,4.1230608055624955
2026-06-22T19:37:52.484056,1782137272.4840078,21,0,0,1709,3.6927719514853115
2026-06-22T19:37:52.484109,1782137272.484064,36,0,0,1699,3.5347830897528505
2026-06-22T19:37:52.535255,1782137272.535166,86,0,0,1700,3.545194741906619
2026-06-22T19:37:52.535323,1782137272.535269,5,0,0,1703,3.5830684579056804
2026-06-22T19:37:52.535390,1782137272.53533,0,0,0,1723,3.6136407009933227
2026-06-22T19:37:52.587886,1782137272.587719,171,0,0,1699,3.6625646704162467
2026-06-22T19:37:52.587977,1782137272.587915,4,0,0,1695,3.7916600077015272
2026-06-22T19:37:52.588044,1782137272.587987,0,0,0,1713,4.126003735496866
2026-06-22T19:37:52.639528,1782137272.6394298,9,0,0,1709,4.740345180406092
2026-06-22T19:37:52.639597,1782137272.6395452,71,0,0,1710,5.551735476754966
2026-06-22T19:37:52.639655,1782137272.639605,9,0,0,1696,6.380815461713667
2026-06-22T19:37:52.639711,1782137272.639662,18,0,0,1698,6.975285022324812
2026-06-22T19:37:52.690595,1782137272.690424,11,0,0,1712,7.028689580891861
2026-06-22T19:37:52.690670,1782137272.69062,85,0,0,1710,6.3843496940464535
2026-06-22T19:37:52.690725,1782137272.690681,16,0,0,1721,5.224131594297423
2026-06-22T19:37:52.742562,1782137272.742469,16,0,0,1698,4.003836892980588
2026-06-22T19:37:52.742629,1782137272.7425761,48,0,0,1691,3.1897285702093994
2026-06-22T19:37:52.742687,1782137272.7426372,80,0,0,1703,2.9859294913573806
2026-06-22T19:37:52.795282,1782137272.7951849,0,0,0,1710,3.2562219962939927
2026-06-22T19:37:52.795350,1782137272.7952929,11,0,0,1709,3.7080829621353035
2026-06-22T19:37:52.795412,1782137272.795358,33,0,0,1703,4.11357945948834
2026-06-22T19:37:52.845876,1782137272.845761,69,0,0,1695,4.333655263729205
2026-06-22T19:37:52.845947,1782137272.8458931,16,0,0,1698,4.259059566352168
2026-06-22T19:37:52.846006,1782137272.8459551,5,0,0,1710,3.839670122458776
2026-06-22T19:37:52.846063,1782137272.846014,29,0,0,1699,3.1452930041253717
2026-06-22T19:37:52.897363,1782137272.897253,0,0,0,1694,2.385451465639926
2026-06-22T19:37:52.897424,1782137272.897377,0,0,0,1700,1.8544556471173084
2026-06-22T19:37:52.897477,1782137272.8974311,10,0,0,1708,1.7574582036511144
2026-06-22T19:37:52.949783,1782137272.949697,11,0,0,1700,2.0604574683114665
2026-06-22T19:37:52.949851,1782137272.9497979,48,0,0,1707,2.559098351657178
2026-06-22T19:37:52.949907,1782137272.949858,14,0,0,1695,3.0844596679726073
2026-06-22T19:37:53.001969,1782137273.0018601,19,0,0,1702,3.597726284554225
2026-06-22T19:37:53.002045,1782137273.001984,0,0,0,1710,4.081658627590675
2026-06-22T19:37:53.002111,1782137273.002054,0,0,0,1699,4.42662149881488
2026-06-22T19:37:53.053081,1782137273.052941,16,0,0,1693,4.504260424588373
2026-06-22T19:37:53.053158,1782137273.0531042,57,0,0,1698,4.304198595170485
2026-06-22T19:37:53.053222,1782137273.053168,17,0,0,1707,3.9260678782231317
2026-06-22T19:37:53.053283,1782137273.053229,22,0,0,1709,3.4769370229033854
2026-06-22T19:37:53.105202,1782137273.105093,6,0,0,1711,3.024023516912354
2026-06-22T19:37:53.105266,1782137273.105217,16,0,0,1701,2.6091651729539707
2026-06-22T19:37:53.105321,1782137273.1052742,0,0,0,1693,2.2597934723698248
2026-06-22T19:37:53.158429,1782137273.1583219,19,0,0,1699,1.970500562925115
2026-06-22T19:37:53.158490,1782137273.158442,34,0,0,1713,1.7147234881893894
2026-06-22T19:37:53.158542,1782137273.158497,1,0,0,1719,1.498488264552087
2026-06-22T19:37:53.209152,1782137273.2090502,12,0,0,1690,1.3524511437325593
2026-06-22T19:37:53.209226,1782137273.209172,9,0,0,1700,1.3093557903766555
2026-06-22T19:37:53.209284,1782137273.209234,53,0,0,1709,1.4932768530030616
2026-06-22T19:37:53.209340,1782137273.209291,22,0,0,1705,2.1209162432682387
2026-06-22T19:37:53.260846,1782137273.260746,18,0,0,1700,3.2529727987234125
2026-06-22T19:37:53.260920,1782137273.260861,60,0,0,1693,4.629849909736808
2026-06-22T19:37:53.260986,1782137273.26093,83,0,0,1702,5.795563057719774
2026-06-22T19:37:53.311592,1782137273.3114839,24,0,0,1692,6.336818819995907
2026-06-22T19:37:53.311656,1782137273.311605,25,0,0,1711,6.13397120362457
2026-06-22T19:37:53.311712,1782137273.311664,16,0,0,1697,5.466017665382337
2026-06-22T19:37:53.364285,1782137273.364185,71,0,0,1699,4.801138179053192
2026-06-22T19:37:53.364352,1782137273.3643,0,0,0,1701,4.441982585485625
2026-06-22T19:37:53.364406,1782137273.364359,14,0,0,1709,4.353100762631459
2026-06-22T19:37:53.364459,1782137273.364413,18,0,0,1706,4.2930368149894695
2026-06-22T19:37:53.415255,1782137273.415156,63,0,0,1695,4.0509978536787274
2026-06-22T19:37:53.415329,1782137273.415273,0,0,0,1703,3.5631053533450054
2026-06-22T19:37:53.415394,1782137273.415342,0,0,0,1702,2.95259412574607
2026-06-22T19:37:53.467215,1782137273.467108,16,0,0,1708,2.5082813837494258
2026-06-22T19:37:53.467285,1782137273.4672298,38,0,0,1701,2.4780841305016468
2026-06-22T19:37:53.467344,1782137273.467293,18,0,0,1689,2.8318576654905394
2026-06-22T19:37:53.520309,1782137273.520213,0,0,0,1701,3.290326466936315
2026-06-22T19:37:53.520377,1782137273.520323,0,0,0,1708,3.5694997134932067
2026-06-22T19:37:53.520438,1782137273.520386,48,0,0,1710,3.561371964827788
2026-06-22T19:37:53.570990,1782137273.570884,34,0,0,1706,3.3223764735198205
2026-06-22T19:37:53.571059,1782137273.571006,58,0,0,1698,2.974755299659
2026-06-22T19:37:53.571117,1782137273.571069,9,0,0,1707,2.636554461743807
2026-06-22T19:37:53.571173,1782137273.571125,33,0,0,1709,2.3842156552885676
2026-06-22T19:37:53.621557,1782137273.621463,21,0,0,1702,2.2621305981983193
2026-06-22T19:37:53.621623,1782137273.621574,23,0,0,1695,2.295408999507691
2026-06-22T19:37:53.621678,1782137273.621633,0,0,0,1697,2.4434254195333347
2026-06-22T19:37:53.673732,1782137273.673643,16,0,0,1728,2.579765816716743
2026-06-22T19:37:53.673797,1782137273.6737459,7,0,0,1714,2.5912589827089083
2026-06-22T19:37:53.673856,1782137273.6738079,32,0,0,1707,2.5464737330776748
2026-06-22T19:37:53.726838,1782137273.726707,27,0,0,1711,2.7030645231863395
2026-06-22T19:37:53.726927,1782137273.726867,0,0,0,1702,3.255848576751896
2026-06-22T19:37:53.726993,1782137273.726936,31,0,0,1706,4.164536042529828
2026-06-22T19:37:53.727055,1782137273.7270012,10,0,0,1709,5.216839883194123
2026-06-22T19:37:53.778039,1782137273.777914,26,0,0,1689,6.085588538407769
2026-06-22T19:37:53.778114,1782137273.77806,41,0,0,1699,6.431781094332417
2026-06-22T19:37:53.778170,1782137273.778122,18,0,0,1705,6.149324799564441
2026-06-22T19:37:53.830097,1782137273.8299918,0,0,0,1712,5.442893612183904
2026-06-22T19:37:53.830157,1782137273.8301098,0,0,0,1744,4.631649648295435
2026-06-22T19:37:53.830209,1782137273.830164,18,0,0,1698,4.012655798133705
2026-06-22T19:37:53.883271,1782137273.883188,70,0,0,1695,3.923976411296148
2026-06-22T19:37:53.883333,1782137273.8832839,13,0,0,1703,4.699667434013237
2026-06-22T19:37:53.883387,1782137273.8833401,8,0,0,1714,6.352495667207843
2026-06-22T19:37:53.934032,1782137273.933928,0,0,0,1703,8.378674911882586
2026-06-22T19:37:53.934104,1782137273.934047,80,0,0,1695,10.016857170070814
2026-06-22T19:37:53.934165,1782137273.934113,0,0,0,1664,10.694547514928672
2026-06-22T19:37:53.934229,1782137273.9341729,0,0,0,1689,10.264274987079782
2026-06-22T19:37:53.985841,1782137273.985707,2,0,0,1707,8.970073354660999
2026-06-22T19:37:53.985916,1782137273.985861,67,0,0,1702,7.284904962780606
2026-06-22T19:37:53.985977,1782137273.9859252,0,0,0,1687,5.715163804763044
2026-06-22T19:37:54.038636,1782137274.0385349,10,0,0,1699,4.6364621857237625
2026-06-22T19:37:54.038706,1782137274.038656,1,0,0,1709,4.188851990543756
2026-06-22T19:37:54.038760,1782137274.038713,32,0,0,1711,4.253492241083603
2026-06-22T19:37:54.089252,1782137274.0891469,0,0,0,1695,4.5688589860815005
2026-06-22T19:37:54.089318,1782137274.089269,67,0,0,1697,4.893542023672149
2026-06-22T19:37:54.089414,1782137274.089366,15,0,0,1706,5.0611788670797155
2026-06-22T19:37:54.089464,1782137274.089421,39,0,0,1705,4.980116461386491
2026-06-22T19:37:54.140422,1782137274.140341,64,0,0,1693,4.694503994771513
2026-06-22T19:37:54.140486,1782137274.140437,35,0,0,1697,4.388050598711317
2026-06-22T19:37:54.140544,1782137274.1404958,0,0,0,1677,4.216383190775386
2026-06-22T19:37:54.192479,1782137274.192367,23,0,0,1693,4.188579784500122
2026-06-22T19:37:54.192552,1782137274.192493,11,0,0,1710,4.224240160737337
2026-06-22T19:37:54.192615,1782137274.1925602,28,0,0,1698,4.230133948298169
2026-06-22T19:37:54.245698,1782137274.245601,0,0,0,1691,4.197972359911644
2026-06-22T19:37:54.245766,1782137274.245713,16,0,0,1705,4.282690118797857
2026-06-22T19:37:54.245823,1782137274.245773,10,0,0,1708,4.63579916989057
2026-06-22T19:37:54.296445,1782137274.296355,0,0,0,1709,5.169589360309451
2026-06-22T19:37:54.296506,1782137274.296459,16,0,0,1701,5.603950954206918
2026-06-22T19:37:54.296558,1782137274.296513,36,0,0,1698,5.705648610601785
2026-06-22T19:37:54.296608,1782137274.2965639,1,0,0,1706,5.423118312122373
2026-06-22T19:37:54.348119,1782137274.3480299,0,0,0,1707,4.840743342563181
2026-06-22T19:37:54.348185,1782137274.3481321,17,0,0,1709,4.126081019223283
2026-06-22T19:37:54.348242,1782137274.348192,16,0,0,1680,3.5196745219503955
2026-06-22T19:37:54.400825,1782137274.400741,57,0,0,1701,3.2569756169202893
2026-06-22T19:37:54.400895,1782137274.40084,0,0,0,1694,3.5122724622950985
2026-06-22T19:37:54.400954,1782137274.400903,13,0,0,1712,4.395960371162085
2026-06-22T19:37:54.451422,1782137274.451327,30,0,0,1703,5.812517591685376
2026-06-22T19:37:54.451508,1782137274.45144,97,0,0,1694,7.304509748005692
2026-06-22T19:37:54.451569,1782137274.4515169,0,0,0,1690,8.226883304557905
2026-06-22T19:37:54.451627,1782137274.451576,6,0,0,1708,8.142474984848876
2026-06-22T19:37:54.502659,1782137274.502548,6,0,0,1710,7.0557780428858505
2026-06-22T19:37:54.502735,1782137274.502678,96,0,0,1697,5.36221454495856
2026-06-22T19:37:54.502802,1782137274.502744,5,0,0,1699,3.628015053918165
2026-06-22T19:37:54.554202,1782137274.554115,0,0,0,1694,2.379233617811278
2026-06-22T19:37:54.554263,1782137274.554215,14,0,0,1705,1.954156401835828
2026-06-22T19:37:54.554315,1782137274.5542688,48,0,0,1710,2.3502181356394996
2026-06-22T19:37:54.607225,1782137274.607129,16,0,0,1702,3.186824857910423
2026-06-22T19:37:54.607293,1782137274.60724,69,0,0,1693,3.9317104757529724
2026-06-22T19:37:54.607350,1782137274.6073012,22,0,0,1701,4.206448155559649
2026-06-22T19:37:54.657736,1782137274.657654,33,0,0,1703,3.935776850198419
2026-06-22T19:37:54.657802,1782137274.657748,0,0,0,1706,3.3262366270894668
2026-06-22T19:37:54.657861,1782137274.6578088,26,0,0,1710,2.7049851639377946
2026-06-22T19:37:54.657920,1782137274.6578681,4,0,0,1679,2.306241059172126
2026-06-22T19:37:54.708765,1782137274.708672,37,0,0,1709,2.225831452845237
2026-06-22T19:37:54.708833,1782137274.708781,9,0,0,1711,2.567104217897384
2026-06-22T19:37:54.708889,1782137274.70884,16,0,0,1710,3.4588287286929034
2026-06-22T19:37:54.760531,1782137274.760437,16,0,0,1696,4.816633853035088
2026-06-22T19:37:54.760594,1782137274.760545,26,0,0,1706,6.225836933555686
2026-06-22T19:37:54.760648,1782137274.760602,0,0,0,1687,7.181862945347389
2026-06-22T19:37:54.812179,1782137274.812066,9,0,0,1711,7.424934469097494
2026-06-22T19:37:54.812257,1782137274.8121989,4,0,0,1690,7.06841270243285
2026-06-22T19:37:54.812318,1782137274.8122659,43,0,0,1699,6.442331105717974
2026-06-22T19:37:54.863094,1782137274.862897,30,0,0,1697,5.818169187119199
2026-06-22T19:37:54.863187,1782137274.8631198,7,0,0,1705,5.2704259918408
2026-06-22T19:37:54.863259,1782137274.8631968,3,0,0,1685,4.754085468272917
2026-06-22T19:37:54.863326,1782137274.8632681,27,0,0,1696,4.248155802120291
2026-06-22T19:37:54.914790,1782137274.914659,12,0,0,1693,3.7830943164447377
2026-06-22T19:37:54.914870,1782137274.914808,25,0,0,1703,3.391993814453763
2026-06-22T19:37:54.914933,1782137274.91488,22,0,0,1712,3.113964423581728
2026-06-22T19:37:54.967327,1782137274.967227,22,0,0,1710,3.0316055268310333
2026-06-22T19:37:54.967394,1782137274.967343,61,0,0,1691,3.24481971417338
2026-06-22T19:37:54.967449,1782137274.967402,0,0,0,1699,3.7511806273461716
2026-06-22T19:37:55.018547,1782137275.018466,0,0,0,1708,4.342766012379929
2026-06-22T19:37:55.018609,1782137275.01856,0,0,0,1707,4.7044227469842514
2026-06-22T19:37:55.018663,1782137275.018616,82,0,0,1702,4.7066285873987965
2026-06-22T19:37:55.018715,1782137275.0186691,19,0,0,1711,4.543456490814265
2026-06-22T19:37:55.069505,1782137275.0694132,0,0,0,1689,4.487482489496662
2026-06-22T19:37:55.069576,1782137275.069519,16,0,0,1709,4.6008140992387885
2026-06-22T19:37:55.069641,1782137275.0695848,55,0,0,1706,4.763478034229532
2026-06-22T19:37:55.121479,1782137275.121367,25,0,0,1697,4.844213940641083
2026-06-22T19:37:55.121556,1782137275.1214972,54,0,0,1693,4.7929871003498885
2026-06-22T19:37:55.121620,1782137275.1215649,0,0,0,1678,4.706684969535747
2026-06-22T19:37:55.172001,1782137275.171869,64,0,0,1706,4.81223831270353
2026-06-22T19:37:55.172067,1782137275.1720161,0,0,0,1707,5.311161566061722
2026-06-22T19:37:55.172123,1782137275.172075,18,0,0,1697,6.254267601735982
2026-06-22T19:37:55.222906,1782137275.2227662,0,0,0,1694,7.4831760309754305
2026-06-22T19:37:55.222971,1782137275.222923,48,0,0,1704,8.5904551490842
2026-06-22T19:37:55.223040,1782137275.2229812,0,0,0,1708,9.074796309323698
2026-06-22T19:37:55.273767,1782137275.2736719,26,0,0,1709,8.69900321192967
2026-06-22T19:37:55.273836,1782137275.273781,27,0,0,1697,7.6445434751722035
2026-06-22T19:37:55.273894,1782137275.273844,0,0,0,1699,6.277671463732192
2026-06-22T19:37:55.273952,1782137275.273901,43,0,0,1702,4.903372003120316
2026-06-22T19:37:55.325643,1782137275.32553,0,0,0,1711,3.749412036030198
2026-06-22T19:37:55.325725,1782137275.3256588,16,0,0,1698,2.959145713424078
2026-06-22T19:37:55.325798,1782137275.3257349,53,0,0,1697,2.5362574843313896
2026-06-22T19:37:55.378598,1782137275.3784902,14,0,0,1693,2.4107769972803714
2026-06-22T19:37:55.378665,1782137275.378613,15,0,0,1707,2.5153503956836176
2026-06-22T19:37:55.378722,1782137275.3786728,25,0,0,1712,2.7303808857970915
2026-06-22T19:37:55.428973,1782137275.428865,48,0,0,1697,2.8662395403197007
2026-06-22T19:37:55.429042,1782137275.42899,0,0,0,1699,2.7925797967101578
2026-06-22T19:37:55.429096,1782137275.429049,10,0,0,1700,2.5810541040189996
2026-06-22T19:37:55.429147,1782137275.4291031,5,0,0,1709,2.463084134954883
2026-06-22T19:37:55.480167,1782137275.480084,0,0,0,1700,2.573578030423494
2026-06-22T19:37:55.480228,1782137275.4801788,23,0,0,1695,2.807996138574586
2026-06-22T19:37:55.480281,1782137275.480236,0,0,0,1702,2.9902938878287877
2026-06-22T19:37:55.532278,1782137275.532193,24,0,0,1713,3.0463173397799364
2026-06-22T19:37:55.532350,1782137275.5322938,13,0,0,1706,2.9856772935189624
2026-06-22T19:37:55.532415,1782137275.5323598,58,0,0,1708,2.85853300615434
2026-06-22T19:37:55.584526,1782137275.5844202,25,0,0,1691,2.771660743515654
2026-06-22T19:37:55.584599,1782137275.5845451,0,0,0,1699,2.855069220666092
2026-06-22T19:37:55.584659,1782137275.584608,1,0,0,1699,3.149847985502608
2026-06-22T19:37:55.635232,1782137275.635112,78,0,0,1707,3.5589636264213205
2026-06-22T19:37:55.635303,1782137275.635247,16,0,0,1701,3.9028360017900567
2026-06-22T19:37:55.635362,1782137275.6353111,64,0,0,1703,3.994493236045523
2026-06-22T19:37:55.635419,1782137275.635369,16,0,0,1697,3.732971426409375
2026-06-22T19:37:55.686822,1782137275.6867251,70,0,0,1710,3.176493738827826
2026-06-22T19:37:55.686887,1782137275.686838,0,0,0,1704,2.5075128147430927
2026-06-22T19:37:55.686943,1782137275.6868951,17,0,0,1694,1.9349463060648333
2026-06-22T19:37:55.739533,1782137275.739316,0,0,0,1694,1.6140055746588666
2026-06-22T19:37:55.739621,1782137275.739556,57,0,0,1705,1.6076203160189833
2026-06-22T19:37:55.739688,1782137275.7396321,4,0,0,1710,1.8870124301389632
2026-06-22T19:37:55.789893,1782137275.7897952,10,0,0,1707,2.3346743567759334
2026-06-22T19:37:55.789963,1782137275.789909,21,0,0,1693,2.7675023591735313
2026-06-22T19:37:55.790360,1782137275.7903051,21,0,0,1702,3.01936390565855
2026-06-22T19:37:55.841132,1782137275.841014,11,0,0,1712,3.027153932987492
2026-06-22T19:37:55.841199,1782137275.841148,16,0,0,1712,2.854686026694709
2026-06-22T19:37:55.841255,1782137275.841207,16,0,0,1714,2.6437240332498613
2026-06-22T19:37:55.841310,1782137275.841262,64,0,0,1694,2.5408902824106314
2026-06-22T19:37:55.891571,1782137275.891459,10,0,0,1675,2.6362030987179024
2026-06-22T19:37:55.891644,1782137275.891592,3,0,0,1713,2.909065300988136
2026-06-22T19:37:55.891700,1782137275.8916538,16,0,0,1712,3.295048883722031
2026-06-22T19:37:55.943137,1782137275.9430552,41,0,0,1706,3.8605961225782277
2026-06-22T19:37:55.943200,1782137275.943149,16,0,0,1700,4.756793234286921
2026-06-22T19:37:55.943257,1782137275.943208,0,0,0,1697,5.946247711042764
2026-06-22T19:37:55.995628,1782137275.995532,11,0,0,1703,7.1116783271747455
2026-06-22T19:37:55.995695,1782137275.99564,19,0,0,1687,7.821481008918673
2026-06-22T19:37:55.995756,1782137275.995703,27,0,0,1700,7.779724922506903
2026-06-22T19:37:55.995816,1782137275.9957628,0,0,0,1702,7.063740196196911
2026-06-22T19:37:56.046707,1782137276.0466108,14,0,0,1705,6.0874457003780424
2026-06-22T19:37:56.046774,1782137276.046722,7,0,0,1725,5.232367781346755
2026-06-22T19:37:56.046830,1782137276.0467808,29,0,0,1700,4.633210348797013
2026-06-22T19:37:56.098716,1782137276.098607,19,0,0,1707,4.342475875716465
2026-06-22T19:37:56.098776,1782137276.09873,16,0,0,1701,4.469767498598516
2026-06-22T19:37:56.098828,1782137276.098783,16,0,0,1704,5.030772919577821
2026-06-22T19:37:56.151885,1782137276.151774,59,0,0,1716,5.762323217220571
2026-06-22T19:37:56.151957,1782137276.151904,27,0,0,1692,6.2443673619945885
2026-06-22T19:37:56.152016,1782137276.151968,82,0,0,1696,6.25331821702172
2026-06-22T19:37:56.202607,1782137276.2025018,0,0,0,1702,5.935745543488473
2026-06-22T19:37:56.202680,1782137276.202624,66,0,0,1706,5.605754895674913
2026-06-22T19:37:56.202744,1782137276.202689,0,0,0,1712,5.429604041370578
2026-06-22T19:37:56.202803,1782137276.202751,29,0,0,1701,5.341120009666444
2026-06-22T19:37:56.254280,1782137276.2541592,0,0,0,1696,5.169866472750353
2026-06-22T19:37:56.254354,1782137276.254297,49,0,0,1709,4.777146835312946
2026-06-22T19:37:56.254416,1782137276.2543628,0,0,0,1712,4.138787518005948
2026-06-22T19:37:56.305291,1782137276.305182,29,0,0,1697,3.3731845445182818
2026-06-22T19:37:56.305356,1782137276.3053062,19,0,0,1695,2.689676038292445
2026-06-22T19:37:56.305409,1782137276.305363,64,0,0,1699,2.2995654887186348
2026-06-22T19:37:56.356289,1782137276.35618,0,0,0,1703,2.32912966166039
2026-06-22T19:37:56.356358,1782137276.356308,0,0,0,1712,2.7312779886673946
2026-06-22T19:37:56.356411,1782137276.3563662,7,0,0,1703,3.278579395357776
2026-06-22T19:37:56.407345,1782137276.40686,66,0,0,1698,3.683042986238791
2026-06-22T19:37:56.407425,1782137276.4073641,0,0,0,1700,3.7395227260201613
2026-06-22T19:37:56.407492,1782137276.407435,14,0,0,1718,3.400336202707186
2026-06-22T19:37:56.407556,1782137276.407501,10,0,0,1708,2.778197998190137
2026-06-22T19:37:56.459015,1782137276.458904,48,0,0,1696,2.1126554008586997
2026-06-22T19:37:56.459081,1782137276.459028,17,0,0,1723,1.695604434141896
2026-06-22T19:37:56.459140,1782137276.4590878,16,0,0,1697,1.7909560551290526
2026-06-22T19:37:56.511664,1782137276.511551,15,0,0,1703,2.629547051272148
2026-06-22T19:37:56.511734,1782137276.511681,30,0,0,1699,4.3151529803058555
2026-06-22T19:37:56.511791,1782137276.5117419,16,0,0,1696,6.536851803683611
2026-06-22T19:37:56.562772,1782137276.5626612,0,0,0,1699,8.53178182727218
2026-06-22T19:37:56.562836,1782137276.562787,0,0,0,1703,9.526825045203331
2026-06-22T19:37:56.562890,1782137276.5628438,0,0,0,1712,9.171786107091853
2026-06-22T19:37:56.562941,1782137276.5628958,6,0,0,1710,7.624308672846898
2026-06-22T19:37:56.613818,1782137276.6137211,41,0,0,1710,5.414330131314794
2026-06-22T19:37:56.613886,1782137276.613836,13,0,0,1696,3.2118432532076016
2026-06-22T19:37:56.613941,1782137276.613894,17,0,0,1711,1.5666255810966963
2026-06-22T19:37:56.665759,1782137276.665658,0,0,0,1710,0.7656322023785134
2026-06-22T19:37:56.665831,1782137276.665775,37,0,0,1699,0.8388625358137813
2026-06-22T19:37:56.665893,1782137276.6658401,71,0,0,1698,1.5910479621409146
2026-06-22T19:37:56.717597,1782137276.717469,0,0,0,1709,2.67189451845896
2026-06-22T19:37:56.717672,1782137276.7176168,37,0,0,1701,3.7290587496333263
2026-06-22T19:37:56.717738,1782137276.7176802,12,0,0,1711,4.535226114965552
2026-06-22T19:37:56.767896,1782137276.767802,9,0,0,1696,5.022682605731851
2026-06-22T19:37:56.767976,1782137276.76791,5,0,0,1695,5.217351849266949
2026-06-22T19:37:56.768034,1782137276.7679842,32,0,0,1706,5.126549130625454
2026-06-22T19:37:56.768088,1782137276.768041,13,0,0,1712,4.7372460543342285
2026-06-22T19:37:56.819043,1782137276.818936,11,0,0,1705,4.129727249129372
2026-06-22T19:37:56.819111,1782137276.81906,10,0,0,1695,3.4971345323228356
2026-06-22T19:37:56.819165,1782137276.8191192,64,0,0,1701,3.0031120861910696
2026-06-22T19:37:56.869609,1782137276.869469,0,0,0,1710,2.6958731225426207
2026-06-22T19:37:56.869739,1782137276.869627,0,0,0,1712,2.5768425494536302
2026-06-22T19:37:56.869827,1782137276.8697531,0,0,0,1708,2.6307138373280283
2026-06-22T19:37:56.920402,1782137276.919938,52,0,0,1693,2.766714383588259
2026-06-22T19:37:56.920493,1782137276.9204302,18,0,0,1701,2.832212861305935
2026-06-22T19:37:56.920614,1782137276.920504,8,0,0,1702,2.7187206084341136
2026-06-22T19:37:56.972566,1782137276.972339,0,0,0,1706,2.444213098384608
2026-06-22T19:37:56.972649,1782137276.97259,64,0,0,1703,2.1246929082854815
2026-06-22T19:37:56.972712,1782137276.972662,0,0,0,1696,1.8749224751543103
2026-06-22T19:37:56.972770,1782137276.972723,15,0,0,1703,1.75559466360921
2026-06-22T19:37:57.023790,1782137277.023663,26,0,0,1711,1.784245161060725
2026-06-22T19:37:57.023878,1782137277.023824,30,0,0,1711,1.9532408969085524
2026-06-22T19:37:57.023933,1782137277.0238879,17,0,0,1705,2.2101758874219364
2026-06-22T19:37:57.075832,1782137277.075715,0,0,0,1680,2.4330946567665808
2026-06-22T19:37:57.075903,1782137277.075853,18,0,0,1704,2.4953886705961454
2026-06-22T19:37:57.075957,1782137277.075912,16,0,0,1703,2.4199651216177887
2026-06-22T19:37:57.128779,1782137277.128459,7,0,0,1701,2.4408019025908607
2026-06-22T19:37:57.128897,1782137277.128803,33,0,0,1695,2.805291195446972
2026-06-22T19:37:57.128961,1782137277.12891,0,0,0,1705,3.525841360029375
2026-06-22T19:37:57.179569,1782137277.179453,16,0,0,1702,4.378786336000992
2026-06-22T19:37:57.179644,1782137277.179586,0,0,0,1709,5.065511052786161
2026-06-22T19:37:57.179702,1782137277.1796522,21,0,0,1739,5.364037775291161
2026-06-22T19:37:57.179772,1782137277.17971,76,0,0,1690,5.27948388218828
2026-06-22T19:37:57.231187,1782137277.23107,16,0,0,1703,5.184882314448528
2026-06-22T19:37:57.231257,1782137277.231206,9,0,0,1697,5.722241194212668
2026-06-22T19:37:57.231313,1782137277.231266,0,0,0,1710,7.268177182597793
2026-06-22T19:37:57.283865,1782137277.2837582,55,0,0,1707,9.402583702393528
2026-06-22T19:37:57.283935,1782137277.283882,14,0,0,1698,11.08930549553501
2026-06-22T19:37:57.283992,1782137277.283942,48,0,0,1703,11.437076744004571
2026-06-22T19:37:57.334457,1782137277.334364,1,0,0,1709,10.257053993758513
2026-06-22T19:37:57.334530,1782137277.334472,10,0,0,1712,8.049927103773747
2026-06-22T19:37:57.334596,1782137277.334538,50,0,0,1691,5.592161748124805
2026-06-22T19:37:57.385377,1782137277.385259,83,0,0,1696,3.5103530958776004
2026-06-22T19:37:57.385463,1782137277.385407,16,0,0,1702,2.1804807977587686
2026-06-22T19:37:57.385523,1782137277.385472,22,0,0,1707,1.7857060348285174
2026-06-22T19:37:57.385581,1782137277.385531,6,0,0,1702,2.2231619710472215
2026-06-22T19:37:57.436964,1782137277.436866,110,0,0,1699,3.072001689153693
2026-06-22T19:37:57.437032,1782137277.436983,0,0,0,1702,3.840081630481747
2026-06-22T19:37:57.437085,1782137277.4370391,0,0,0,1698,4.222933090375191
2026-06-22T19:37:57.487389,1782137277.487276,11,0,0,1709,4.16122860474311
2026-06-22T19:37:57.487524,1782137277.4874759,82,0,0,1702,3.7798788314806018
2026-06-22T19:37:57.487576,1782137277.4875321,9,0,0,1684,3.2764214880436406
2026-06-22T19:37:57.539703,1782137277.539619,15,0,0,1710,2.8165099689795943
2026-06-22T19:37:57.539768,1782137277.539716,17,0,0,1711,2.570432014395603
2026-06-22T19:37:57.539824,1782137277.539776,44,0,0,1707,2.7811015813471487
2026-06-22T19:37:57.539879,1782137277.539831,25,0,0,1701,3.585360789251044
2026-06-22T19:37:57.590777,1782137277.590667,0,0,0,1697,4.7727550829685566
2026-06-22T19:37:57.590849,1782137277.590792,3,0,0,1696,5.8654699793843985
2026-06-22T19:37:57.590912,1782137277.590857,42,0,0,1711,6.417316278977307
2026-06-22T19:37:57.642752,1782137277.6426392,0,0,0,1711,6.232759342648312
2026-06-22T19:37:57.642815,1782137277.642765,7,0,0,1695,5.4094489598231075
2026-06-22T19:37:57.642872,1782137277.642823,0,0,0,1697,4.2460514010212576
2026-06-22T19:37:57.695702,1782137277.695596,37,0,0,1732,3.1122592176972534
2026-06-22T19:37:57.695764,1782137277.6957152,5,0,0,1711,2.3526743358312387
2026-06-22T19:37:57.695816,1782137277.695771,0,0,0,1700,2.2673719896251594
2026-06-22T19:37:57.746282,1782137277.746187,80,0,0,1693,3.0543855703630403
2026-06-22T19:37:57.746355,1782137277.7462962,34,0,0,1709,4.576400536142092
2026-06-22T19:37:57.746419,1782137277.746363,1,0,0,1707,6.283909598993414
2026-06-22T19:37:57.746480,1782137277.746426,17,0,0,1709,7.551464469750805
2026-06-22T19:37:57.798060,1782137277.797975,16,0,0,1696,8.025767738960676
2026-06-22T19:37:57.798134,1782137277.798073,0,0,0,1691,7.6659775406365815
2026-06-22T19:37:57.798201,1782137277.798142,16,0,0,1703,6.630891246006288
2026-06-22T19:37:57.850688,1782137277.8505669,21,0,0,1711,5.207075740651715
2026-06-22T19:37:57.850761,1782137277.850705,11,0,0,1703,3.7666254774262047
2026-06-22T19:37:57.850823,1782137277.8507688,39,0,0,1691,2.654787646140395
2026-06-22T19:37:57.902134,1782137277.902037,45,0,0,1705,2.0435274929183307
2026-06-22T19:37:57.902200,1782137277.902148,1,0,0,1701,1.9255811866908683
2026-06-22T19:37:57.902256,1782137277.902209,16,0,0,1705,2.260427701671836
2026-06-22T19:37:57.902310,1782137277.902263,19,0,0,1692,3.0023201723446773
2026-06-22T19:37:57.953196,1782137277.953105,105,0,0,1694,3.940115412995336
2026-06-22T19:37:57.953256,1782137277.95321,6,0,0,1696,4.69529587252984
2026-06-22T19:37:57.953308,1782137277.953263,2,0,0,1702,4.968379146319563
2026-06-22T19:37:58.005123,1782137278.005023,0,0,0,1707,4.690097097071774
2026-06-22T19:37:58.005194,1782137278.005137,91,0,0,1703,3.9724864767164805
2026-06-22T19:37:58.005256,1782137278.0052018,0,0,0,1702,3.029470106420905
2026-06-22T19:37:58.058216,1782137278.0580962,6,0,0,1697,2.109238988794533
2026-06-22T19:37:58.058295,1782137278.058236,12,0,0,1712,1.4201156664714982
2026-06-22T19:37:58.058359,1782137278.058304,79,0,0,1709,1.0891258344546655
2026-06-22T19:37:58.108908,1782137278.108791,17,0,0,1696,1.1625158706877539
2026-06-22T19:37:58.108976,1782137278.108922,0,0,0,1701,1.602308673284317
2026-06-22T19:37:58.109033,1782137278.108984,11,0,0,1697,2.293504763521943
2026-06-22T19:37:58.109090,1782137278.10904,49,0,0,1706,3.091206771551213
2026-06-22T19:37:58.160507,1782137278.160397,15,0,0,1710,3.822252931178655
2026-06-22T19:37:58.160567,1782137278.1605198,20,0,0,1695,4.263727900236531
2026-06-22T19:37:58.160620,1782137278.160574,0,0,0,1698,4.257277740424989
2026-06-22T19:37:58.212582,1782137278.212481,4,0,0,1712,3.875536948959254
2026-06-22T19:37:58.212653,1782137278.2126,0,0,0,1711,3.391002358481945
2026-06-22T19:37:58.212711,1782137278.212663,19,0,0,1679,3.061357354572376
2026-06-22T19:37:58.264422,1782137278.264317,89,0,0,1693,3.003684605170867
2026-06-22T19:37:58.264501,1782137278.264437,31,0,0,1698,3.297500454419318
2026-06-22T19:37:58.264571,1782137278.26451,13,0,0,1707,4.048229386874017
2026-06-22T19:37:58.264638,1782137278.264579,2,0,0,1706,5.169453154209567
2026-06-22T19:37:58.315557,1782137278.315451,16,0,0,1705,6.249441402644621
2026-06-22T19:37:58.315628,1782137278.315572,30,0,0,1693,6.805175689700552
2026-06-22T19:37:58.315686,1782137278.315636,7,0,0,1702,6.593128938730317
2026-06-22T19:37:58.366195,1782137278.3661041,0,0,0,1711,5.691000950279655
2026-06-22T19:37:58.366258,1782137278.366209,12,0,0,1707,4.400179763073255
2026-06-22T19:37:58.366313,1782137278.366265,37,0,0,1683,3.0909825372173874
2026-06-22T19:37:58.418967,1782137278.418873,16,0,0,1687,2.086861791184213
2026-06-22T19:37:58.419033,1782137278.4189801,0,0,0,1701,1.6020640277137477
2026-06-22T19:37:58.419093,1782137278.419042,10,0,0,1724,1.7003278203178318
2026-06-22T19:37:58.469226,1782137278.4691331,16,0,0,1699,2.2527108873387096
2026-06-22T19:37:58.469297,1782137278.4692411,71,0,0,1702,2.9805191255481285
2026-06-22T19:37:58.469356,1782137278.469304,15,0,0,1710,3.6669556250748516
2026-06-22T19:37:58.469414,1782137278.469363,11,0,0,1702,4.303908564069165
2026-06-22T19:37:58.520287,1782137278.520159,19,0,0,1703,4.996481261620461
2026-06-22T19:37:58.520359,1782137278.520305,35,0,0,1702,5.804765298032458
2026-06-22T19:37:58.520418,1782137278.5203662,15,0,0,1695,6.6110969640194135
2026-06-22T19:37:58.572245,1782137278.5721269,15,0,0,1705,7.089812826245665
2026-06-22T19:37:58.572311,1782137278.5722592,0,0,0,1699,6.916490504852454
2026-06-22T19:37:58.572368,1782137278.572319,87,0,0,1704,6.025024568786435
2026-06-22T19:37:58.625322,1782137278.62523,38,0,0,1699,4.644306989603093
2026-06-22T19:37:58.625381,1782137278.625335,0,0,0,1696,3.1374173333566038
2026-06-22T19:37:58.625431,1782137278.6253881,21,0,0,1683,1.827107804136626
2026-06-22T19:37:58.675916,1782137278.675821,52,0,0,1709,0.9218479821629457
2026-06-22T19:37:58.675989,1782137278.6759338,13,0,0,1705,0.5336544679640748
2026-06-22T19:37:58.676050,1782137278.675999,16,0,0,1691,0.7137743338258354
2026-06-22T19:37:58.676106,1782137278.676057,9,0,0,1698,1.4299469963900115
2026-06-22T19:37:58.727465,1782137278.7273579,54,0,0,1701,2.5654764922941466
2026-06-22T19:37:58.727539,1782137278.727478,0,0,0,1699,3.968008121566333
2026-06-22T19:37:58.727608,1782137278.727548,16,0,0,1702,5.381086465946481
2026-06-22T19:37:58.778317,1782137278.7782242,98,0,0,1691,6.39333409521767
2026-06-22T19:37:58.778382,1782137278.7783308,50,0,0,1695,6.627144681509349
2026-06-22T19:37:58.778438,1782137278.77839,12,0,0,1701,5.9630908691233895
2026-06-22T19:37:58.831752,1782137278.831637,10,0,0,1713,4.593516719586354
2026-06-22T19:37:58.831817,1782137278.831768,20,0,0,1701,2.9312986520971456
2026-06-22T19:37:58.831871,1782137278.8318238,22,0,0,1691,1.4312591619376451
2026-06-22T19:37:58.882720,1782137278.882633,13,0,0,1702,0.42783929958207956
2026-06-22T19:37:58.882784,1782137278.882735,12,0,0,1703,0.09435986700826188
2026-06-22T19:37:58.882838,1782137278.8827908,0,0,0,1707,0.4891924317169259
2026-06-22T19:37:58.882891,1782137278.882844,54,0,0,1709,1.527139711179686
2026-06-22T19:37:58.934814,1782137278.934706,3,0,0,1700,2.872079796228629
2026-06-22T19:37:58.934884,1782137278.934828,6,0,0,1700,4.003667382950711
2026-06-22T19:37:58.934947,1782137278.934892,0,0,0,1712,4.497083188495896
2026-06-22T19:37:58.986803,1782137278.986683,38,0,0,1709,4.2466227536703975
2026-06-22T19:37:58.986882,1782137278.986824,38,0,0,1695,3.492462547304704
2026-06-22T19:37:58.986942,1782137278.98689,0,0,0,1690,2.662875517498804
2026-06-22T19:37:59.037224,1782137279.0371032,13,0,0,1709,2.1089006110427713
2026-06-22T19:37:59.037292,1782137279.03724,10,0,0,1709,1.9527145272383164
2026-06-22T19:37:59.037348,1782137279.0372999,27,0,0,1703,2.174892980661864
2026-06-22T19:37:59.037401,1782137279.037355,0,0,0,1712,2.7338471436718557
2026-06-22T19:37:59.088336,1782137279.0881972,5,0,0,1697,3.5472210829191417
2026-06-22T19:37:59.088411,1782137279.0883589,16,0,0,1712,4.477816050455501
2026-06-22T19:37:59.088468,1782137279.088421,64,0,0,1709,5.37692211946212
2026-06-22T19:37:59.140499,1782137279.140383,18,0,0,1707,6.071895093558979
2026-06-22T19:37:59.140572,1782137279.140518,0,0,0,1698,6.356829248356934
2026-06-22T19:37:59.140632,1782137279.1405811,7,0,0,1707,6.077527717522704
2026-06-22T19:37:59.191506,1782137279.1913931,95,0,0,1709,5.241158859408707
2026-06-22T19:37:59.191584,1782137279.191524,11,0,0,1707,4.047702761528173
2026-06-22T19:37:59.191648,1782137279.191594,36,0,0,1697,2.8054003823570044
2026-06-22T19:37:59.241863,1782137279.241757,16,0,0,1697,1.7915011618470473
2026-06-22T19:37:59.241933,1782137279.2418802,49,0,0,1696,1.1553250792985357
2026-06-22T19:37:59.241991,1782137279.241942,7,0,0,1708,0.896413273994215
2026-06-22T19:37:59.242044,1782137279.2419982,12,0,0,1699,0.9048195839519125
2026-06-22T19:37:59.293061,1782137279.292949,98,0,0,1699,1.0424210679167574
2026-06-22T19:37:59.293124,1782137279.293077,48,0,0,1703,1.219140827475177
2026-06-22T19:37:59.293176,1782137279.293131,0,0,0,1711,1.402332377502875
2026-06-22T19:37:59.345136,1782137279.345026,31,0,0,1712,1.5855019881703278
2026-06-22T19:37:59.345212,1782137279.3451571,19,0,0,1698,1.7627917790026613
2026-06-22T19:37:59.345269,1782137279.34522,53,0,0,1693,1.90740016882086
2026-06-22T19:37:59.397549,1782137279.397441,4,0,0,1698,2.0093948499744525
2026-06-22T19:37:59.397627,1782137279.397569,16,0,0,1707,2.119650162638526
2026-06-22T19:37:59.397691,1782137279.3976371,14,0,0,1707,2.271158132328399
2026-06-22T19:37:59.448275,1782137279.448162,49,0,0,1696,2.400129448174228
2026-06-22T19:37:59.448348,1782137279.448291,0,0,0,1691,2.415768812904881
2026-06-22T19:37:59.448411,1782137279.448357,10,0,0,1702,2.292106655755352
2026-06-22T19:37:59.448471,1782137279.4484181,0,0,0,1706,2.0718454420881796
2026-06-22T19:37:59.499888,1782137279.499784,39,0,0,1707,1.8579843324554843
2026-06-22T19:37:59.499950,1782137279.4999008,43,0,0,1692,1.7769532684167653
2026-06-22T19:37:59.500003,1782137279.499957,0,0,0,1697,1.869864696602373
2026-06-22T19:37:59.551090,1782137279.551001,0,0,0,1701,2.070438162538124
2026-06-22T19:37:59.551153,1782137279.551105,10,0,0,1712,2.3064573706179416
2026-06-22T19:37:59.551206,1782137279.551161,17,0,0,1712,2.522236637427291
2026-06-22T19:37:59.602264,1782137279.602162,13,0,0,1698,2.6253334366990106
2026-06-22T19:37:59.602341,1782137279.602279,6,0,0,1703,2.5336302570316147
2026-06-22T19:37:59.602406,1782137279.602349,17,0,0,1718,2.292703478230117
2026-06-22T19:37:59.652970,1782137279.652821,34,0,0,1707,2.090522999812659
2026-06-22T19:37:59.653048,1782137279.652986,28,0,0,1699,2.131128063965269
2026-06-22T19:37:59.653112,1782137279.653057,0,0,0,1697,2.49983797933964
2026-06-22T19:37:59.653173,1782137279.653119,16,0,0,1702,3.111930066912556
2026-06-22T19:37:59.704585,1782137279.7044759,64,0,0,1712,3.7563143426959105
2026-06-22T19:37:59.704649,1782137279.704598,0,0,0,1710,4.1976185724962045
2026-06-22T19:37:59.704703,1782137279.7046568,0,0,0,1681,4.256348321206659
2026-06-22T19:37:59.756224,1782137279.7561119,0,0,0,1694,3.894070290584768
2026-06-22T19:37:59.756286,1782137279.7562392,69,0,0,1703,3.3140650963896836
2026-06-22T19:37:59.756336,1782137279.756293,0,0,0,1711,2.896603330694738
2026-06-22T19:37:59.808233,1782137279.808138,10,0,0,1708,2.9192113196016587
2026-06-22T19:37:59.808301,1782137279.808249,90,0,0,1699,3.3585757616781486
2026-06-22T19:37:59.808358,1782137279.808309,38,0,0,1702,3.951571360971534
2026-06-22T19:37:59.859141,1782137279.8590348,0,0,0,1695,4.383133543581458
2026-06-22T19:37:59.859216,1782137279.859155,1,0,0,1709,4.501975501711627
2026-06-22T19:37:59.859276,1782137279.859224,38,0,0,1700,4.422375644582544
2026-06-22T19:37:59.859334,1782137279.859283,44,0,0,1686,4.373585863104865
2026-06-22T19:37:59.911050,1782137279.9109492,0,0,0,1696,4.467915406133656
2026-06-22T19:37:59.911116,1782137279.9110641,13,0,0,1691,4.645955522954699
2026-06-22T19:37:59.911173,1782137279.911124,27,0,0,1706,4.805290593036781
2026-06-22T19:37:59.964062,1782137279.963949,54,0,0,1697,4.8892482158277835
2026-06-22T19:37:59.964127,1782137279.964077,16,0,0,1680,4.832804473816659
2026-06-22T19:37:59.964182,1782137279.964135,16,0,0,1706,4.560016444767812
2026-06-22T19:38:00.014538,1782137280.014442,11,0,0,1705,4.155842678239084
2026-06-22T19:38:00.014603,1782137280.014551,18,0,0,1705,3.963852513981935
2026-06-22T19:38:00.014664,1782137280.014612,52,0,0,1696,4.3180212066840795
2026-06-22T19:38:00.014722,1782137280.0146718,0,0,0,1691,5.1454850548116475
2026-06-22T19:38:00.065894,1782137280.065774,3,0,0,1702,5.959427834272766
2026-06-22T19:38:00.065971,1782137280.065912,20,0,0,1715,6.2421632348418
2026-06-22T19:38:00.066034,1782137280.06598,12,0,0,1707,5.776588878925325
2026-06-22T19:38:00.118231,1782137280.1181,14,0,0,1692,4.7014437365409085
2026-06-22T19:38:00.118316,1782137280.118252,10,0,0,1697,3.387588797907509
2026-06-22T19:38:00.118383,1782137280.118325,33,0,0,1677,2.267600674393886
2026-06-22T19:38:00.170966,1782137280.170858,12,0,0,1711,1.715436341359999
2026-06-22T19:38:00.171036,1782137280.1709828,18,0,0,1701,1.9898411970798375
2026-06-22T19:38:00.171093,1782137280.171044,0,0,0,1718,3.1390229752038317
2026-06-22T19:38:00.171147,1782137280.1711009,16,0,0,1680,4.893026274969756
2026-06-22T19:38:00.222049,1782137280.221916,50,0,0,1701,6.725787545507588
2026-06-22T19:38:00.222122,1782137280.222073,5,0,0,1708,8.130687780321834
2026-06-22T19:38:00.222180,1782137280.222135,16,0,0,1692,8.871495943787675
2026-06-22T19:38:00.273971,1782137280.273889,26,0,0,1703,9.020337173913802
2026-06-22T19:38:00.274035,1782137280.273984,58,0,0,1704,8.898146174918704
2026-06-22T19:38:00.274094,1782137280.274045,16,0,0,1710,8.886865323066525
2026-06-22T19:38:00.327337,1782137280.327224,29,0,0,1710,9.05869657642341
2026-06-22T19:38:00.327420,1782137280.327359,64,0,0,1693,9.067057807589864
2026-06-22T19:38:00.327484,1782137280.327428,82,0,0,1702,8.51261062128822
2026-06-22T19:38:00.378082,1782137280.3779662,0,0,0,1709,7.30436434288034
2026-06-22T19:38:00.378154,1782137280.3781,14,0,0,1706,5.690207466937052
2026-06-22T19:38:00.378212,1782137280.378162,13,0,0,1701,4.104222412682449
2026-06-22T19:38:00.378268,1782137280.378219,60,0,0,1695,2.9810510163811426
2026-06-22T19:38:00.429709,1782137280.429609,0,0,0,1702,2.5470587387129084
2026-06-22T19:38:00.429776,1782137280.429726,13,0,0,1712,2.6968686124018335
2026-06-22T19:38:00.429830,1782137280.429783,19,0,0,1709,3.1120826819771823
2026-06-22T19:38:00.482316,1782137280.482223,70,0,0,1697,3.4828743437835
2026-06-22T19:38:00.482382,1782137280.482332,19,0,0,1695,3.6132467995268756
2026-06-22T19:38:00.482439,1782137280.48239,0,0,0,1697,3.464883080826576
2026-06-22T19:38:00.533436,1782137280.533344,0,0,0,1712,3.1686269832319875
2026-06-22T19:38:00.533507,1782137280.533452,16,0,0,1711,2.9064664602452828
2026-06-22T19:38:00.533577,1782137280.533524,39,0,0,1703,2.7705199494631163
2026-06-22T19:38:00.533639,1782137280.533587,4,0,0,1700,2.7536728945922597
2026-06-22T19:38:00.584517,1782137280.584385,1,0,0,1703,2.7917398069148542
2026-06-22T19:38:00.584594,1782137280.5845382,30,0,0,1706,2.791937748038945
2026-06-22T19:38:00.584655,1782137280.5846028,0,0,0,1703,2.688456668064438
2026-06-22T19:38:00.635736,1782137280.635635,16,0,0,1697,2.4779020211202436
2026-06-22T19:38:00.635804,1782137280.6357498,15,0,0,1705,2.1957525886490923
2026-06-22T19:38:00.635863,1782137280.635811,13,0,0,1708,1.8962220169289394
2026-06-22T19:38:00.687047,1782137280.686961,0,0,0,1709,1.6600852915993425
2026-06-22T19:38:00.687107,1782137280.6870599,19,0,0,1703,1.5631721825371667
2026-06-22T19:38:00.687162,1782137280.687117,0,0,0,1694,1.6042378206158006
2026-06-22T19:38:00.738177,1782137280.738067,18,0,0,1699,1.6944275354321618
2026-06-22T19:38:00.738258,1782137280.738195,12,0,0,1707,1.736004200886335
2026-06-22T19:38:00.738326,1782137280.738268,27,0,0,1712,1.7018104846481388
2026-06-22T19:38:00.738393,1782137280.738334,37,0,0,1699,1.619729946817719
2026-06-22T19:38:00.789325,1782137280.789189,16,0,0,1694,1.5131511100353658
2026-06-22T19:38:00.789407,1782137280.789352,18,0,0,1706,1.4189807902482252
2026-06-22T19:38:00.789467,1782137280.7894158,18,0,0,1716,1.4170953867649456
2026-06-22T19:38:00.840322,1782137280.8402078,32,0,0,1705,1.5709854313569824
2026-06-22T19:38:00.840388,1782137280.840339,93,0,0,1698,1.8688018501115997
2026-06-22T19:38:00.840441,1782137280.840395,47,0,0,1696,2.260234490994686
2026-06-22T19:38:00.893222,1782137280.893116,3,0,0,1685,2.707581599840187
2026-06-22T19:38:00.893280,1782137280.893235,11,0,0,1726,3.1824772504581387
2026-06-22T19:38:00.893332,1782137280.893287,7,0,0,1711,3.7073346780426646
2026-06-22T19:38:00.943575,1782137280.9434419,51,0,0,1693,4.406699298555134
2026-06-22T19:38:00.943667,1782137280.9435918,0,0,0,1703,5.391164791563633
2026-06-22T19:38:00.943725,1782137280.9436748,12,0,0,1689,6.610482857605188
2026-06-22T19:38:00.943780,1782137280.943732,16,0,0,1709,7.920248894926841
2026-06-22T19:38:00.994803,1782137280.9946911,77,0,0,1699,9.168949697471291
2026-06-22T19:38:00.994878,1782137280.994818,17,0,0,1699,10.123664920056921
2026-06-22T19:38:00.994942,1782137280.9948869,2,0,0,1701,10.478503199363441
2026-06-22T19:38:01.046346,1782137281.0462341,9,0,0,1706,10.01956527817952
2026-06-22T19:38:01.046410,1782137281.046359,56,0,0,1711,8.742133472125868
2026-06-22T19:38:01.046468,1782137281.046418,48,0,0,1696,6.855446738264026
2026-06-22T19:38:01.099498,1782137281.099413,33,0,0,1695,4.72437218797472
2026-06-22T19:38:01.099560,1782137281.099512,11,0,0,1701,2.788640800766846
2026-06-22T19:38:01.099614,1782137281.0995688,21,0,0,1712,1.4378512229018814
2026-06-22T19:38:01.150252,1782137281.1501062,22,0,0,1711,0.8489929814620203
2026-06-22T19:38:01.150458,1782137281.150367,16,0,0,1695,0.9168040549214725
2026-06-22T19:38:01.150652,1782137281.150472,16,0,0,1695,1.355619703854914
2026-06-22T19:38:01.150707,1782137281.150662,0,0,0,1694,1.9022735728513964
2026-06-22T19:38:01.202499,1782137281.202177,6,0,0,1712,2.4445492487401035
2026-06-22T19:38:01.202573,1782137281.202516,16,0,0,1686,2.9632358039413393
2026-06-22T19:38:01.202633,1782137281.202581,0,0,0,1698,3.4624773599468073
2026-06-22T19:38:01.255357,1782137281.255232,26,0,0,1699,4.031774628628927
2026-06-22T19:38:01.255432,1782137281.2553751,13,0,0,1709,4.794426631967283
2026-06-22T19:38:01.255496,1782137281.255441,0,0,0,1668,5.656976014921911
2026-06-22T19:38:01.305627,1782137281.305541,33,0,0,1700,6.3030382521770685
2026-06-22T19:38:01.305692,1782137281.305642,27,0,0,1703,6.61019417484519
2026-06-22T19:38:01.305748,1782137281.3057,7,0,0,1706,6.855312959096119
2026-06-22T19:38:01.305802,1782137281.305755,20,0,0,1711,7.313503761233342
2026-06-22T19:38:01.356604,1782137281.35652,15,0,0,1703,7.925858830585633
2026-06-22T19:38:01.356667,1782137281.356618,64,0,0,1697,8.458010271254347
2026-06-22T19:38:01.356719,1782137281.356674,23,0,0,1707,8.66612140012398
2026-06-22T19:38:01.408381,1782137281.4082901,9,0,0,1702,8.31904527179561
2026-06-22T19:38:01.408453,1782137281.408394,0,0,0,1707,7.306774483644958
2026-06-22T19:38:01.408789,1782137281.408712,16,0,0,1706,5.750594361070777
2026-06-22T19:38:01.461826,1782137281.461717,13,0,0,1696,3.983714016754722
2026-06-22T19:38:01.461902,1782137281.461844,5,0,0,1697,2.446039600207515
2026-06-22T19:38:01.461970,1782137281.4619122,7,0,0,1707,1.534949438930594
2026-06-22T19:38:01.512583,1782137281.512458,0,0,0,1702,1.4209555105868898
2026-06-22T19:38:01.512656,1782137281.5126028,79,0,0,1699,1.934044478705445
2026-06-22T19:38:01.512717,1782137281.512664,11,0,0,1691,2.6683148956061684
2026-06-22T19:38:01.512772,1782137281.512724,0,0,0,1699,3.2377953941046185
2026-06-22T19:38:01.564271,1782137281.5641658,13,0,0,1711,3.4430924079956706
2026-06-22T19:38:01.564330,1782137281.5642838,70,0,0,1703,3.2716943250136934
2026-06-22T19:38:01.564381,1782137281.564337,64,0,0,1712,2.8770535132197343
2026-06-22T19:38:01.614808,1782137281.6147048,11,0,0,1703,2.5771175384581078
2026-06-22T19:38:01.614879,1782137281.614825,14,0,0,1706,2.703172124327191
2026-06-22T19:38:01.614940,1782137281.61489,61,0,0,1703,3.3218889330030517
2026-06-22T19:38:01.668315,1782137281.668032,19,0,0,1710,4.148458021980753
2026-06-22T19:38:01.668388,1782137281.668331,2,0,0,1691,4.771998412428912
2026-06-22T19:38:01.668451,1782137281.668397,16,0,0,1698,4.960542173484246
2026-06-22T19:38:01.668513,1782137281.668459,38,0,0,1695,4.787943907165342
2026-06-22T19:38:01.719505,1782137281.719403,20,0,0,1712,4.49646667816955
2026-06-22T19:38:01.719578,1782137281.719521,16,0,0,1680,4.250232752713941
2026-06-22T19:38:01.719638,1782137281.7195861,0,0,0,1699,4.094348651284522
2026-06-22T19:38:01.771645,1782137281.771522,34,0,0,1710,4.13188424417147
2026-06-22T19:38:01.771714,1782137281.771662,11,0,0,1689,4.542106824051033
2026-06-22T19:38:01.771768,1782137281.771721,0,0,0,1729,5.417683819041198
2026-06-22T19:38:01.824941,1782137281.824838,31,0,0,1703,6.7933328032681475
2026-06-22T19:38:01.825010,1782137281.8249578,23,0,0,1697,8.724861997673008
2026-06-22T19:38:01.825067,1782137281.8250182,0,0,0,1703,11.030021596826128
2026-06-22T19:38:01.875787,1782137281.8756979,1,0,0,1702,13.042914285124704
2026-06-22T19:38:01.875852,1782137281.8758001,16,0,0,1712,13.934743676486997
2026-06-22T19:38:01.875909,1782137281.87586,87,0,0,1696,13.280029057856545
2026-06-22T19:38:01.875965,1782137281.875916,9,0,0,1695,11.242301942415905
2026-06-22T19:38:01.927555,1782137281.927477,2,0,0,1702,8.405845030267407
2026-06-22T19:38:01.927636,1782137281.927569,6,0,0,1699,5.5205099844534615
2026-06-22T19:38:01.927694,1782137281.9276428,35,0,0,1705,3.2501656735975364
2026-06-22T19:38:01.979171,1782137281.979029,18,0,0,1680,1.9987908667922487
2026-06-22T19:38:01.979299,1782137281.9792378,0,0,0,1691,1.8377865801220503
2026-06-22T19:38:01.979363,1782137281.97931,1,0,0,1710,2.5509418301347253
2026-06-22T19:38:02.030489,1782137282.030406,27,0,0,1710,3.7670584402229634
2026-06-22T19:38:02.030551,1782137282.0305018,55,0,0,1709,5.075971788672128
2026-06-22T19:38:02.030603,1782137282.030557,11,0,0,1693,6.121134815267634
2026-06-22T19:38:02.081504,1782137282.081409,8,0,0,1700,6.645543117263461
2026-06-22T19:38:02.081570,1782137282.08152,16,0,0,1675,6.513559703648744
2026-06-22T19:38:02.081625,1782137282.081577,69,0,0,1712,5.846069548244698
2026-06-22T19:38:02.081678,1782137282.081631,42,0,0,1703,5.1123610482662984
2026-06-22T19:38:02.132883,1782137282.132791,0,0,0,1695,4.87598554210749
2026-06-22T19:38:02.132957,1782137282.1328971,16,0,0,1699,5.360138121959913
2026-06-22T19:38:02.133023,1782137282.132968,64,0,0,1712,6.328312664249587
2026-06-22T19:38:02.185005,1782137282.184892,5,0,0,1709,7.342753369160541
2026-06-22T19:38:02.185085,1782137282.18503,16,0,0,1694,7.984581729109896
2026-06-22T19:38:02.185146,1782137282.1850932,13,0,0,1697,7.958160109317241
2026-06-22T19:38:02.235292,1782137282.235202,22,0,0,1701,7.27696419016522
2026-06-22T19:38:02.235358,1782137282.2353039,7,0,0,1708,6.30878071625498
2026-06-22T19:38:02.235415,1782137282.2353652,36,0,0,1703,5.4500254238260055
2026-06-22T19:38:02.235470,1782137282.235421,0,0,0,1697,4.809711217467914
2026-06-22T19:38:02.286376,1782137282.286282,37,0,0,1680,4.299639040334041
2026-06-22T19:38:02.286440,1782137282.28639,21,0,0,1712,3.8919710627878836
2026-06-22T19:38:02.286495,1782137282.2864482,16,0,0,1710,3.705251355894585
2026-06-22T19:38:02.338330,1782137282.338222,39,0,0,1702,3.9400486395050347
2026-06-22T19:38:02.338402,1782137282.338345,28,0,0,1692,4.6996588622343545
2026-06-22T19:38:02.338465,1782137282.338411,11,0,0,1730,5.774644100756519
2026-06-22T19:38:02.391522,1782137282.391404,0,0,0,1709,6.717119570457021
2026-06-22T19:38:02.391597,1782137282.391538,16,0,0,1701,7.279365519830347
2026-06-22T19:38:02.391661,1782137282.391605,81,0,0,1699,7.6411148475468895
2026-06-22T19:38:02.442261,1782137282.442153,25,0,0,1695,8.060609110198254
2026-06-22T19:38:02.442334,1782137282.442278,17,0,0,1686,8.518723686601803
2026-06-22T19:38:02.442394,1782137282.4423418,10,0,0,1711,8.785498032325409
2026-06-22T19:38:02.442452,1782137282.4424021,28,0,0,1711,8.643767402650957
2026-06-22T19:38:02.494029,1782137282.493849,2,0,0,1691,8.040421736142115
2026-06-22T19:38:02.494132,1782137282.494059,15,0,0,1708,7.114228326693004
2026-06-22T19:38:02.494195,1782137282.494144,1,0,0,1706,6.187478627002103
2026-06-22T19:38:02.544470,1782137282.5443652,26,0,0,1709,5.698583381002052
2026-06-22T19:38:02.544542,1782137282.544489,26,0,0,1680,5.867458730761876
2026-06-22T19:38:02.544602,1782137282.544554,32,0,0,1696,6.437771867667387
2026-06-22T19:38:02.597477,1782137282.597365,9,0,0,1701,6.983791818940574
2026-06-22T19:38:02.597556,1782137282.597491,39,0,0,1706,7.333045461195656
2026-06-22T19:38:02.597624,1782137282.597565,32,0,0,1712,7.489792590954384
2026-06-22T19:38:02.597692,1782137282.5976331,46,0,0,1703,7.392581749438249
2026-06-22T19:38:02.648609,1782137282.6485078,5,0,0,1698,6.949024753730639
2026-06-22T19:38:02.648675,1782137282.648623,22,0,0,1701,6.136869689575086
2026-06-22T19:38:02.648731,1782137282.648683,50,0,0,1712,5.007369913304406
2026-06-22T19:38:02.700602,1782137282.700487,38,0,0,1707,3.696001863100736
2026-06-22T19:38:02.700667,1782137282.700617,12,0,0,1696,2.4322795065410245
2026-06-22T19:38:02.700722,1782137282.700675,9,0,0,1692,1.4769267732662552
2026-06-22T19:38:02.753712,1782137282.7536268,55,0,0,1703,0.9982668346978071
2026-06-22T19:38:02.753773,1782137282.7537248,11,0,0,1708,0.9950877736288868
2026-06-22T19:38:02.753827,1782137282.753783,0,0,0,1703,1.3362427788207454
2026-06-22T19:38:02.804694,1782137282.804481,0,0,0,1697,1.8449832349632416
2026-06-22T19:38:02.804774,1782137282.8047109,54,0,0,1712,2.349878747381587
2026-06-22T19:38:02.804839,1782137282.804783,16,0,0,1706,2.723486950366928
2026-06-22T19:38:02.804901,1782137282.804847,13,0,0,1710,2.953015002157062
2026-06-22T19:38:02.856417,1782137282.8563142,27,0,0,1689,3.1455562293000225
2026-06-22T19:38:02.856485,1782137282.856431,22,0,0,1694,3.374619202950485
2026-06-22T19:38:02.856544,1782137282.856492,15,0,0,1705,3.5781016428073107
2026-06-22T19:38:02.906897,1782137282.9067872,0,0,0,1717,3.6603226896531833
2026-06-22T19:38:02.906966,1782137282.906914,0,0,0,1712,3.6042927513401573
2026-06-22T19:38:02.907025,1782137282.906975,103,0,0,1703,3.4571952078625245
2026-06-22T19:38:02.957532,1782137282.957418,0,0,0,1694,3.255732890036518
2026-06-22T19:38:02.957605,1782137282.9575522,0,0,0,1723,2.9833055908541266
2026-06-22T19:38:02.957663,1782137282.9576151,7,0,0,1710,2.6313490763682994
2026-06-22T19:38:03.007935,1782137283.007843,34,0,0,1707,2.332921124456279
2026-06-22T19:38:03.008003,1782137283.00795,12,0,0,1674,2.339833684795139
2026-06-22T19:38:03.008059,1782137283.008011,23,0,0,1701,2.7515179441887954
2026-06-22T19:38:03.008114,1782137283.008066,12,0,0,1710,3.3843130720207584
2026-06-22T19:38:03.059201,1782137283.0590951,12,0,0,1709,3.996800767671777
2026-06-22T19:38:03.059276,1782137283.059215,16,0,0,1703,4.487127471963153
2026-06-22T19:38:03.059342,1782137283.059285,7,0,0,1698,4.891517545347536
2026-06-22T19:38:03.111436,1782137283.1113222,5,0,0,1696,5.298567495223051
2026-06-22T19:38:03.111506,1782137283.1114502,16,0,0,1706,5.671918731882965
2026-06-22T19:38:03.111569,1782137283.111514,0,0,0,1709,5.803439222701672
2026-06-22T19:38:03.164825,1782137283.164715,48,0,0,1701,5.530878049478533
2026-06-22T19:38:03.164888,1782137283.164839,35,0,0,1733,4.92739580032886
2026-06-22T19:38:03.164941,1782137283.164895,23,0,0,1699,4.338075265199319
2026-06-22T19:38:03.164992,1782137283.164948,38,0,0,1703,4.318910666939694
2026-06-22T19:38:03.215878,1782137283.215778,0,0,0,1710,5.34000670970673
2026-06-22T19:38:03.215944,1782137283.215895,2,0,0,1690,7.324263028427218
2026-06-22T19:38:03.215997,1782137283.215952,0,0,0,1690,9.574222489659942
2026-06-22T19:38:03.267326,1782137283.2672231,61,0,0,1706,11.241449336089577
2026-06-22T19:38:03.267401,1782137283.267342,3,0,0,1707,11.773722243425151
2026-06-22T19:38:03.267465,1782137283.2674098,25,0,0,1706,11.076852906078178
2026-06-22T19:38:03.320414,1782137283.3202848,0,0,0,1699,9.486998973328905
2026-06-22T19:38:03.320501,1782137283.3204439,68,0,0,1699,7.513593487585463
2026-06-22T19:38:03.320562,1782137283.32051,0,0,0,1697,5.554716016631611
2026-06-22T19:38:03.370993,1782137283.370878,1,0,0,1721,3.862671351680753
2026-06-22T19:38:03.371056,1782137283.371008,29,0,0,1705,2.6388817806007605
2026-06-22T19:38:03.371109,1782137283.371064,51,0,0,1696,2.059688671536789
2026-06-22T19:38:03.371159,1782137283.371116,38,0,0,1677,2.1931307315379662
2026-06-22T19:38:03.422378,1782137283.4222841,22,0,0,1703,2.85411797225608
2026-06-22T19:38:03.422441,1782137283.422394,8,0,0,1707,3.6274286421646904
2026-06-22T19:38:03.422494,1782137283.4224498,102,0,0,1707,4.167818319487994
2026-06-22T19:38:03.474739,1782137283.474643,7,0,0,1697,4.414899417246696
2026-06-22T19:38:03.474813,1782137283.474764,0,0,0,1705,4.484971754263046
2026-06-22T19:38:03.474867,1782137283.474821,22,0,0,1712,4.478181508344232
2026-06-22T19:38:03.525050,1782137283.524959,48,0,0,1710,4.402721207370288
2026-06-22T19:38:03.525114,1782137283.5250611,0,0,0,1690,4.224340553618708
2026-06-22T19:38:03.525172,1782137283.525121,16,0,0,1695,3.960696639045524
2026-06-22T19:38:03.575610,1782137283.575459,4,0,0,1712,3.680333768066193
2026-06-22T19:38:03.575682,1782137283.575628,16,0,0,1712,3.4457012502816884
2026-06-22T19:38:03.575750,1782137283.57569,4,0,0,1703,3.3524289983439504
2026-06-22T19:38:03.575806,1782137283.575758,0,0,0,1696,3.538834147734759
2026-06-22T19:38:03.626467,1782137283.626374,14,0,0,1708,3.9940604306439065
2026-06-22T19:38:03.626530,1782137283.6264808,25,0,0,1712,4.456159369939138
2026-06-22T19:38:03.626583,1782137283.626538,16,0,0,1712,4.676205072240392
2026-06-22T19:38:03.678414,1782137283.6783202,48,0,0,1701,4.654291710816426
2026-06-22T19:38:03.678527,1782137283.678474,8,0,0,1697,4.489897800795353
2026-06-22T19:38:03.678593,1782137283.678545,0,0,0,1703,4.198411860806922
2026-06-22T19:38:03.731831,1782137283.7317162,16,0,0,1700,3.776399150801364
2026-06-22T19:38:03.731915,1782137283.731848,16,0,0,1710,3.2817145108623005
2026-06-22T19:38:03.731982,1782137283.731925,16,0,0,1698,2.8023574692970485
2026-06-22T19:38:03.782858,1782137283.7827258,13,0,0,1695,2.4161864101092823
2026-06-22T19:38:03.782925,1782137283.7828732,0,0,0,1695,2.1566771236890596
2026-06-22T19:38:03.782981,1782137283.782932,25,0,0,1710,1.9983139891129544
2026-06-22T19:38:03.783036,1782137283.782988,14,0,0,1707,1.8969388791830148
2026-06-22T19:38:03.834846,1782137283.83474,0,0,0,1695,1.8255891563792035
2026-06-22T19:38:03.834907,1782137283.834859,55,0,0,1697,1.78298960577616
2026-06-22T19:38:03.834959,1782137283.8349152,17,0,0,1707,1.8316225921378435
2026-06-22T19:38:03.887905,1782137283.887818,11,0,0,1714,2.0843853415154507
2026-06-22T19:38:03.887967,1782137283.8879192,21,0,0,1707,2.5425971019962756
2026-06-22T19:38:03.888018,1782137283.8879738,75,0,0,1697,3.011012610776138
2026-06-22T19:38:03.938739,1782137283.9386501,0,0,0,1701,3.278829165612447
2026-06-22T19:38:03.938805,1782137283.9387531,0,0,0,1712,3.2953300197342075
2026-06-22T19:38:03.938860,1782137283.938812,17,0,0,1701,3.130491887842102
2026-06-22T19:38:03.938914,1782137283.9388669,83,0,0,1701,2.9136857691346747
2026-06-22T19:38:03.989979,1782137283.989892,0,0,0,1702,2.8361092551468388
2026-06-22T19:38:03.990042,1782137283.98999,1,0,0,1695,3.0499272540457287
2026-06-22T19:38:03.990100,1782137283.9900491,9,0,0,1707,3.5147784294172912
2026-06-22T19:38:04.040983,1782137284.0408618,38,0,0,1711,4.02363669016311
2026-06-22T19:38:04.041055,1782137284.041006,0,0,0,1696,4.357025285457036
2026-06-22T19:38:04.041110,1782137284.0410628,16,0,0,1707,4.401490390048404
2026-06-22T19:38:04.094415,1782137284.094306,5,0,0,1698,4.239194753810693
2026-06-22T19:38:04.094481,1782137284.094429,48,0,0,1711,4.1255620563811854
2026-06-22T19:38:04.094536,1782137284.094489,19,0,0,1701,4.262919275249543
2026-06-22T19:38:04.145384,1782137284.145304,28,0,0,1698,4.604906487257169
2026-06-22T19:38:04.145445,1782137284.145396,5,0,0,1699,4.914754392165706
2026-06-22T19:38:04.145498,1782137284.145452,0,0,0,1710,4.949832755460459
2026-06-22T19:38:04.145551,1782137284.145504,5,0,0,1707,4.596788690500419
2026-06-22T19:38:04.196952,1782137284.196862,48,0,0,1699,3.91232770097259
2026-06-22T19:38:04.197019,1782137284.1969652,6,0,0,1696,3.076651894666236
2026-06-22T19:38:04.197078,1782137284.197027,0,0,0,1702,2.3184656566940918
2026-06-22T19:38:04.250019,1782137284.2498932,0,0,0,1711,1.8303169680024438
2026-06-22T19:38:04.250097,1782137284.250039,16,0,0,1710,1.6640047493972505
2026-06-22T19:38:04.250167,1782137284.250106,11,0,0,1699,1.7127720728082632
2026-06-22T19:38:04.300592,1782137284.300472,16,0,0,1697,1.8299070524433025
2026-06-22T19:38:04.300664,1782137284.30061,9,0,0,1715,1.915189706970556
2026-06-22T19:38:04.300724,1782137284.300676,0,0,0,1705,1.9243483631204523
2026-06-22T19:38:04.300784,1782137284.300731,25,0,0,1708,1.9464371633248032
2026-06-22T19:38:04.351081,1782137284.35093,0,0,0,1697,2.221184611706578
2026-06-22T19:38:04.351184,1782137284.351104,31,0,0,1697,2.8861220487903596
2026-06-22T19:38:04.351241,1782137284.3511949,16,0,0,1711,3.7284168949933214
2026-06-22T19:38:04.403676,1782137284.4031968,13,0,0,1713,4.31909969407255
2026-06-22T19:38:04.403754,1782137284.403698,23,0,0,1701,4.37299484571401
2026-06-22T19:38:04.403811,1782137284.403763,64,0,0,1695,3.928302672596678
2026-06-22T19:38:04.455002,1782137284.454887,13,0,0,1699,3.2497235890079748
2026-06-22T19:38:04.455072,1782137284.4550211,23,0,0,1712,2.629945456464865
2026-06-22T19:38:04.455125,1782137284.455081,0,0,0,1707,2.238659338421539
2026-06-22T19:38:04.505587,1782137284.50546,106,0,0,1705,2.094213066076303
2026-06-22T19:38:04.505669,1782137284.505616,7,0,0,1701,2.145536153916578
2026-06-22T19:38:04.505724,1782137284.5056791,17,0,0,1700,2.326810364160528
2026-06-22T19:38:04.505773,1782137284.505731,14,0,0,1711,2.539823914664709
2026-06-22T19:38:04.557076,1782137284.5569541,63,0,0,1702,2.677564541435527
2026-06-22T19:38:04.557147,1782137284.5570948,0,0,0,1695,2.702384414151247
2026-06-22T19:38:04.557203,1782137284.557156,13,0,0,1694,2.6637500792531577
2026-06-22T19:38:04.609586,1782137284.609461,13,0,0,1701,2.616207914202443
2026-06-22T19:38:04.609656,1782137284.6096058,48,0,0,1712,2.551495917138292
2026-06-22T19:38:04.609708,1782137284.609664,16,0,0,1708,2.420654764120715
2026-06-22T19:38:04.661529,1782137284.661389,3,0,0,1702,2.191060071015632
2026-06-22T19:38:04.661596,1782137284.661546,0,0,0,1695,1.8961277081861352
2026-06-22T19:38:04.661674,1782137284.6616051,0,0,0,1703,1.619641166853329
2026-06-22T19:38:04.712136,1782137284.7120209,5,0,0,1711,1.4150948686115343
2026-06-22T19:38:04.712205,1782137284.7121558,64,0,0,1707,1.2833558171866717
2026-06-22T19:38:04.712261,1782137284.712213,19,0,0,1701,1.2142852975478993
2026-06-22T19:38:04.712310,1782137284.712268,19,0,0,1696,1.2107894675205022
2026-06-22T19:38:04.764022,1782137284.763915,0,0,0,1706,1.2727609589374185
2026-06-22T19:38:04.764087,1782137284.76404,0,0,0,1707,1.3701679377586609
2026-06-22T19:38:04.764137,1782137284.764095,22,0,0,1706,1.4725209395839158
2026-06-22T19:38:04.817022,1782137284.816867,29,0,0,1697,1.5885059747653534
2026-06-22T19:38:04.817088,1782137284.817041,4,0,0,1697,1.7188982464197182
2026-06-22T19:38:04.817140,1782137284.8170948,13,0,0,1705,1.8044170558772377
2026-06-22T19:38:04.867497,1782137284.8673642,16,0,0,1697,1.781080671704561
2026-06-22T19:38:04.867620,1782137284.867523,0,0,0,1695,1.685301969966261
2026-06-22T19:38:04.867685,1782137284.8676322,24,0,0,1699,1.6587748829963935
2026-06-22T19:38:04.867758,1782137284.867693,0,0,0,1690,1.8154327762160847
2026-06-22T19:38:04.919158,1782137284.9189818,16,0,0,1707,2.1517711034178078
2026-06-22T19:38:04.919253,1782137284.919181,39,0,0,1698,2.615578298005676
2026-06-22T19:38:04.919315,1782137284.919264,21,0,0,1703,3.171784483229368
2026-06-22T19:38:04.970519,1782137284.970421,16,0,0,1706,3.7497932446310083
2026-06-22T19:38:04.970589,1782137284.97054,7,0,0,1711,4.18806702867248
2026-06-22T19:38:04.970642,1782137284.970599,21,0,0,1711,4.307176718357499
2026-06-22T19:38:05.021233,1782137285.020909,42,0,0,1702,4.041378035439749
2026-06-22T19:38:05.021516,1782137285.021294,0,0,0,1680,3.465689082551107
2026-06-22T19:38:05.021722,1782137285.0215402,7,0,0,1701,2.7420377762200157
2026-06-22T19:38:05.072066,1782137285.0718982,16,0,0,1719,2.096768450316416
2026-06-22T19:38:05.072142,1782137285.0720909,61,0,0,1712,1.7853152253337916
2026-06-22T19:38:05.072197,1782137285.0721521,0,0,0,1699,1.983554578223215
2026-06-22T19:38:05.072247,1782137285.072204,13,0,0,1696,2.698689007895034
2026-06-22T19:38:05.123303,1782137285.1231759,0,0,0,1707,3.7397407738384914
2026-06-22T19:38:05.123400,1782137285.123347,67,0,0,1708,4.754379474388304
2026-06-22T19:38:05.123458,1782137285.123412,14,0,0,1701,5.418389608594029
2026-06-22T19:38:05.174311,1782137285.173913,16,0,0,1654,5.62946679699789
2026-06-22T19:38:05.174778,1782137285.174429,0,0,0,1698,5.514364673796816
2026-06-22T19:38:05.174875,1782137285.174796,49,0,0,1709,5.4160258514896675
2026-06-22T19:38:05.227985,1782137285.227884,0,0,0,1706,5.833953051518218
2026-06-22T19:38:05.228050,1782137285.228002,67,0,0,1706,7.044055438103954
2026-06-22T19:38:05.228101,1782137285.2280588,4,0,0,1697,8.78118265837432
2026-06-22T19:38:05.278805,1782137285.278653,34,0,0,1695,10.424762300436457
2026-06-22T19:38:05.278880,1782137285.278827,11,0,0,1710,11.325615980723883
2026-06-22T19:38:05.278938,1782137285.278892,2,0,0,1710,11.028106872530373
2026-06-22T19:38:05.278993,1782137285.27895,16,0,0,1697,9.474493622016034
2026-06-22T19:38:05.330608,1782137285.3304691,27,0,0,1700,7.060101381548687
2026-06-22T19:38:05.330681,1782137285.3306298,43,0,0,1701,4.4840404820798
2026-06-22T19:38:05.330737,1782137285.3306901,7,0,0,1702,2.4712736975502185
2026-06-22T19:38:05.383622,1782137285.3835032,19,0,0,1693,1.4244505609222653
2026-06-22T19:38:05.383695,1782137285.383643,0,0,0,1703,1.2654290356453748
2026-06-22T19:38:05.383749,1782137285.383704,22,0,0,1702,1.6585107478588046
2026-06-22T19:38:05.434123,1782137285.4339929,5,0,0,1698,2.3139254018485875
2026-06-22T19:38:05.434201,1782137285.4341462,0,0,0,1710,3.0340743310362845
2026-06-22T19:38:05.434259,1782137285.4342122,39,0,0,1707,3.650458338300231
2026-06-22T19:38:05.434312,1782137285.434266,16,0,0,1695,4.052619842173928
2026-06-22T19:38:05.485301,1782137285.485198,5,0,0,1698,4.206691928484958
2026-06-22T19:38:05.485368,1782137285.485321,0,0,0,1718,4.135084848257828
2026-06-22T19:38:05.485418,1782137285.485376,16,0,0,1706,3.9316180095544
2026-06-22T19:38:05.537398,1782137285.53727,43,0,0,1702,3.768015451838259
2026-06-22T19:38:05.537503,1782137285.5374348,11,0,0,1691,3.821247716404017
2026-06-22T19:38:05.537555,1782137285.537513,0,0,0,1703,4.107218935355501
2026-06-22T19:38:05.588246,1782137285.58812,2,0,0,1702,4.4150907050520924
2026-06-22T19:38:05.588320,1782137285.588267,49,0,0,1709,4.505144459837478
2026-06-22T19:38:05.588375,1782137285.588329,3,0,0,1696,4.303230439671095
2026-06-22T19:38:05.638593,1782137285.6384761,10,0,0,1696,3.8577046439730824
2026-06-22T19:38:05.638674,1782137285.638613,0,0,0,1712,3.232531835130057
2026-06-22T19:38:05.638744,1782137285.638685,58,0,0,1712,2.525619899780177
2026-06-22T19:38:05.638808,1782137285.638753,30,0,0,1710,1.95254776224736
2026-06-22T19:38:05.689903,1782137285.6897979,19,0,0,1696,1.788825398610729
2026-06-22T19:38:05.689969,1782137285.6899211,0,0,0,1699,2.128262301629437
2026-06-22T19:38:05.690019,1782137285.6899772,58,0,0,1710,2.7701741396574566
2026-06-22T19:38:05.741957,1782137285.7418282,16,0,0,1713,3.400460588187665
2026-06-22T19:38:05.742032,1782137285.741984,66,0,0,1703,3.781385843865923
2026-06-22T19:38:05.742084,1782137285.742041,9,0,0,1710,3.8054606908838053
2026-06-22T19:38:05.794926,1782137285.794813,45,0,0,1698,3.5520923062256955
2026-06-22T19:38:05.794993,1782137285.794945,6,0,0,1710,3.292752102354712
2026-06-22T19:38:05.795044,1782137285.7950022,15,0,0,1713,3.3031660644161205
2026-06-22T19:38:05.845662,1782137285.8455381,16,0,0,1698,3.624277586596201
2026-06-22T19:38:05.845778,1782137285.8456802,21,0,0,1680,4.041970831768786
2026-06-22T19:38:05.845851,1782137285.845796,14,0,0,1699,4.298340851329581
2026-06-22T19:38:05.845915,1782137285.845867,21,0,0,1712,4.299340766218029
2026-06-22T19:38:05.897595,1782137285.897482,6,0,0,1709,4.147690372398012
2026-06-22T19:38:05.897668,1782137285.8976152,0,0,0,1696,4.009787746602248
2026-06-22T19:38:05.898156,1782137285.8977332,0,0,0,1697,3.9686438470779586
2026-06-22T19:38:05.948709,1782137285.9486022,7,0,0,1699,3.99379583779891
2026-06-22T19:38:05.948783,1782137285.9487329,0,0,0,1709,3.994279255117065
2026-06-22T19:38:05.948836,1782137285.948792,64,0,0,1711,3.8765210552103424
2026-06-22T19:38:06.001018,1782137286.0009012,27,0,0,1695,3.5831606987936544
2026-06-22T19:38:06.001094,1782137286.00104,17,0,0,1702,3.1385299538918923
2026-06-22T19:38:06.001153,1782137286.0011039,14,0,0,1686,2.7032600471773556
2026-06-22T19:38:06.001208,1782137286.0011609,17,0,0,1714,2.5572726914254735
2026-06-22T19:38:06.052140,1782137286.052022,19,0,0,1696,2.9575635750274354
2026-06-22T19:38:06.052217,1782137286.0521631,0,0,0,1693,3.9692813063365944
2026-06-22T19:38:06.052276,1782137286.052227,11,0,0,1697,5.385140202248416
2026-06-22T19:38:06.103828,1782137286.1037009,21,0,0,1707,6.760514569704458
2026-06-22T19:38:06.103912,1782137286.103847,28,0,0,1705,7.607876862920359
2026-06-22T19:38:06.103979,1782137286.103921,0,0,0,1695,7.641367896868822
2026-06-22T19:38:06.156958,1782137286.156812,21,0,0,1696,6.871189533541551
2026-06-22T19:38:06.157038,1782137286.156978,0,0,0,1700,5.581007952088013
2026-06-22T19:38:06.157102,1782137286.157047,45,0,0,1712,4.221527329254637
2026-06-22T19:38:06.207647,1782137286.20752,3,0,0,1703,3.1773931575827077
2026-06-22T19:38:06.207719,1782137286.207666,48,0,0,1693,2.5935419514209967
2026-06-22T19:38:06.207776,1782137286.2077281,22,0,0,1699,2.4213798027975204
2026-06-22T19:38:06.207830,1782137286.207783,71,0,0,1705,2.526176693727963
2026-06-22T19:38:06.257947,1782137286.2578602,13,0,0,1706,2.7386498919651294
2026-06-22T19:38:06.258009,1782137286.2579598,48,0,0,1709,2.9093131770623706
2026-06-22T19:38:06.258063,1782137286.258016,19,0,0,1689,2.972417635160707
2026-06-22T19:38:06.310159,1782137286.310057,62,0,0,1697,2.9771905423717007
2026-06-22T19:38:06.310233,1782137286.3101718,0,0,0,1703,3.047747922709509
2026-06-22T19:38:06.310301,1782137286.310242,0,0,0,1723,3.274281540604732
2026-06-22T19:38:06.363257,1782137286.363146,18,0,0,1701,3.6078528514675012
2026-06-22T19:38:06.363323,1782137286.3632698,45,0,0,1685,3.89631773557297
2026-06-22T19:38:06.363380,1782137286.3633301,6,0,0,1707,4.056448634238021
2026-06-22T19:38:06.414228,1782137286.4141319,8,0,0,1675,4.17500913446739
2026-06-22T19:38:06.414299,1782137286.414241,14,0,0,1706,4.533875699222308
2026-06-22T19:38:06.414363,1782137286.414308,0,0,0,1702,5.534101110085714
2026-06-22T19:38:06.414427,1782137286.414371,16,0,0,1696,7.29835768081408
2026-06-22T19:38:06.466365,1782137286.46625,30,0,0,1697,9.310234796735584
2026-06-22T19:38:06.466446,1782137286.466385,0,0,0,1716,10.699282063077392
2026-06-22T19:38:06.466512,1782137286.4664571,66,0,0,1707,10.882951892811064
2026-06-22T19:38:06.519228,1782137286.5191,18,0,0,1687,9.864057934656158
2026-06-22T19:38:06.519302,1782137286.5192478,10,0,0,1698,8.10255955253823
2026-06-22T19:38:06.519362,1782137286.51931,16,0,0,1709,6.272872104080082
2026-06-22T19:38:06.569852,1782137286.5697348,33,0,0,1711,5.000261197405192
2026-06-22T19:38:06.569918,1782137286.569868,16,0,0,1701,4.543319883832364
2026-06-22T19:38:06.569984,1782137286.569925,14,0,0,1695,4.678740352834446
2026-06-22T19:38:06.570037,1782137286.56999,6,0,0,1689,4.98029081437622
2026-06-22T19:38:06.620605,1782137286.620518,15,0,0,1703,5.146128913580886
2026-06-22T19:38:06.620669,1782137286.6206179,21,0,0,1735,5.050435946883611
2026-06-22T19:38:06.620724,1782137286.620676,0,0,0,1702,4.673935535723235
2026-06-22T19:38:06.672858,1782137286.672767,10,0,0,1697,4.169590251029065
2026-06-22T19:38:06.672929,1782137286.672874,7,0,0,1704,3.913381525848299
2026-06-22T19:38:06.672989,1782137286.672937,0,0,0,1699,4.245201977656176
2026-06-22T19:38:06.724281,1782137286.724192,11,0,0,1696,5.181400327466078
2026-06-22T19:38:06.724348,1782137286.724294,35,0,0,1696,6.441589874806818
2026-06-22T19:38:06.724407,1782137286.724355,16,0,0,1686,7.5752259154156905
2026-06-22T19:38:06.774906,1782137286.7748082,64,0,0,1697,8.098831410700807
2026-06-22T19:38:06.774975,1782137286.774922,0,0,0,1705,7.72638156080502
2026-06-22T19:38:06.775032,1782137286.774983,52,0,0,1703,6.5118705230084215
2026-06-22T19:38:06.775099,1782137286.775039,22,0,0,1694,4.805631851567825
2026-06-22T19:38:06.825564,1782137286.82547,80,0,0,1697,3.097931269149478
2026-06-22T19:38:06.825633,1782137286.825582,14,0,0,1707,1.795553070777405
2026-06-22T19:38:06.825686,1782137286.82564,12,0,0,1734,1.0597251306141882
2026-06-22T19:38:06.876613,1782137286.876522,9,0,0,1703,0.8374698197849367
2026-06-22T19:38:06.876685,1782137286.876627,84,0,0,1697,1.0391089001086986
2026-06-22T19:38:06.876757,1782137286.876693,7,0,0,1703,1.6657821728763482
2026-06-22T19:38:06.930025,1782137286.9299269,0,0,0,1698,2.7224937619446035
2026-06-22T19:38:06.930101,1782137286.9300401,16,0,0,1712,4.0986648811172275
2026-06-22T19:38:06.930170,1782137286.93011,6,0,0,1698,5.610248850465846
2026-06-22T19:38:06.980940,1782137286.9808269,0,0,0,1693,7.0169303519275905
2026-06-22T19:38:06.981008,1782137286.9809542,16,0,0,1707,7.998445738365724
2026-06-22T19:38:06.981065,1782137286.981015,11,0,0,1708,8.272808749339314
2026-06-22T19:38:06.981120,1782137286.981072,53,0,0,1701,7.771073143113342
2026-06-22T19:38:07.032822,1782137287.032694,22,0,0,1695,6.686998632404338
2026-06-22T19:38:07.032883,1782137287.0328362,0,0,0,1697,5.372884266783636
2026-06-22T19:38:07.032936,1782137287.03289,9,0,0,1695,4.173234041978177
2026-06-22T19:38:07.084283,1782137287.084183,17,0,0,1712,3.297693565967843
