timestamp,t_mono,m1,m2,m3,grav_raw,grav_env
2026-06-22T18:22:30.940647,1782132750.9361112,31,0,0,1707,0.0
2026-06-22T18:22:30.940761,1782132750.940688,31,0,0,1707,0.0
2026-06-22T18:22:30.940836,1782132750.9407701,31,0,0,1707,0.0
2026-06-22T18:22:30.940903,1782132750.940844,31,0,0,1707,0.0
2026-06-22T18:22:30.940959,1782132750.9409091,31,0,0,1707,0.0
2026-06-22T18:22:30.941011,1782132750.9409652,31,0,0,1707,0.0
2026-06-22T18:22:30.941065,1782132750.941016,31,0,0,1707,0.0
2026-06-22T18:22:30.941122,1782132750.941071,31,0,0,1707,0.0
2026-06-22T18:22:30.941171,1782132750.9411268,31,0,0,1707,0.0
2026-06-22T18:22:30.941228,1782132750.9411762,31,0,0,1707,0.0
2026-06-22T18:22:30.941283,1782132750.9412348,31,0,0,1707,0.0
2026-06-22T18:22:30.941339,1782132750.941288,31,0,0,1707,0.0
2026-06-22T18:22:30.941391,1782132750.941344,31,0,0,1707,0.0
2026-06-22T18:22:30.941446,1782132750.941396,31,0,0,1707,0.0
2026-06-22T18:22:30.941498,1782132750.941451,31,0,0,1707,0.0
2026-06-22T18:22:30.941554,1782132750.941503,31,0,0,1707,0.0
2026-06-22T18:22:30.941606,1782132750.94156,31,0,0,1707,0.0
2026-06-22T18:22:30.941661,1782132750.941611,31,0,0,1707,0.0
2026-06-22T18:22:30.941715,1782132750.941667,31,0,0,1707,0.0
2026-06-22T18:22:30.941772,1782132750.94172,31,0,0,1707,0.0
2026-06-22T18:22:30.941834,1782132750.941782,31,0,0,1707,0.0
2026-06-22T18:22:30.941887,1782132750.9418392,31,0,0,1707,0.0
2026-06-22T18:22:30.941939,1782132750.941893,31,0,0,1707,0.0
2026-06-22T18:22:30.941988,1782132750.9419441,31,0,0,1707,0.0
2026-06-22T18:22:30.942036,1782132750.941993,31,0,0,1707,0.0
2026-06-22T18:22:30.942140,1782132750.9420412,31,0,0,1707,0.0
2026-06-22T18:22:30.942222,1782132750.942154,31,0,0,1707,0.0
2026-06-22T18:22:30.942292,1782132750.942231,31,0,0,1707,0.0
2026-06-22T18:22:30.942349,1782132750.942299,31,0,0,1707,0.0
2026-06-22T18:22:30.942400,1782132750.942355,31,0,0,1707,0.0
2026-06-22T18:22:30.942456,1782132750.942406,31,0,0,1707,0.0
2026-06-22T18:22:30.942511,1782132750.942462,31,0,0,1707,0.0
2026-06-22T18:22:30.942581,1782132750.942522,31,0,0,1707,0.0
2026-06-22T18:22:30.942636,1782132750.942587,31,0,0,1707,0.0
2026-06-22T18:22:30.942685,1782132750.9426408,31,0,0,1707,0.0
2026-06-22T18:22:30.942739,1782132750.9426901,31,0,0,1707,0.0
2026-06-22T18:22:30.942810,1782132750.942745,31,0,0,1707,0.0
2026-06-22T18:22:30.942921,1782132750.942816,31,0,0,1707,0.0
2026-06-22T18:22:30.943001,1782132750.942934,31,0,0,1707,0.0
2026-06-22T18:22:30.943067,1782132750.9430091,31,0,0,1707,0.0
2026-06-22T18:22:30.943132,1782132750.943081,31,0,0,1707,0.0
2026-06-22T18:22:30.943188,1782132750.9431381,31,0,0,1707,0.0
2026-06-22T18:22:30.943238,1782132750.9431942,31,0,0,1707,0.0
2026-06-22T18:22:30.943295,1782132750.943244,31,0,0,1707,0.0
2026-06-22T18:22:30.943346,1782132750.9433,31,0,0,1707,0.0
2026-06-22T18:22:30.943397,1782132750.943351,31,0,0,1707,0.0
2026-06-22T18:22:30.943451,1782132750.943402,31,0,0,1707,0.0
2026-06-22T18:22:30.943508,1782132750.943455,31,0,0,1707,0.0
2026-06-22T18:22:30.943560,1782132750.9435132,31,0,0,1707,0.0
2026-06-22T18:22:30.943609,1782132750.9435651,31,0,0,1707,0.0
2026-06-22T18:22:30.943658,1782132750.943615,31,0,0,1707,0.0
2026-06-22T18:22:30.943712,1782132750.9436631,31,0,0,1707,0.0
2026-06-22T18:22:30.943774,1782132750.943725,31,0,0,1707,0.0
2026-06-22T18:22:30.943823,1782132750.943779,31,0,0,1707,0.0
2026-06-22T18:22:30.943874,1782132750.9438279,31,0,0,1707,0.0
2026-06-22T18:22:30.943921,1782132750.943879,31,0,0,1707,0.0
2026-06-22T18:22:30.943969,1782132750.943926,31,0,0,1707,0.0
2026-06-22T18:22:30.944022,1782132750.9439738,31,0,0,1707,0.0
2026-06-22T18:22:30.944068,1782132750.944026,31,0,0,1707,0.0
2026-06-22T18:22:30.944117,1782132750.944072,31,0,0,1707,0.0
2026-06-22T18:22:30.944165,1782132750.944122,31,0,0,1707,0.0
2026-06-22T18:22:30.944214,1782132750.94417,31,0,0,1707,0.0
2026-06-22T18:22:30.944264,1782132750.9442198,31,0,0,1707,0.0
2026-06-22T18:22:30.944317,1782132750.9442701,31,0,0,1707,0.0
2026-06-22T18:22:30.944365,1782132750.944323,31,0,0,1707,0.0
2026-06-22T18:22:30.944423,1782132750.94437,31,0,0,1707,0.0
2026-06-22T18:22:30.944476,1782132750.944428,31,0,0,1707,0.0
2026-06-22T18:22:30.944529,1782132750.9444811,31,0,0,1707,0.0
2026-06-22T18:22:30.944578,1782132750.944534,31,0,0,1707,0.0
2026-06-22T18:22:30.944631,1782132750.944583,31,0,0,1707,0.0
2026-06-22T18:22:30.944680,1782132750.9446359,0,0,0,1701,0.0021717072469859856
2026-06-22T18:22:30.944728,1782132750.9446862,0,0,0,1701,0.02035247973897003
2026-06-22T18:22:30.944782,1782132750.9447339,0,0,0,1701,0.08772173998116321
2026-06-22T18:22:30.944835,1782132750.944788,0,0,0,1701,0.2357151089887676
2026-06-22T18:22:30.944894,1782132750.94484,0,0,0,1701,0.4547766508166602
2026-06-22T18:22:30.944942,1782132750.944899,0,0,0,1701,0.6879414691279255
2026-06-22T18:22:30.945004,1782132750.944948,0,0,0,1701,0.8616781161708879
2026-06-22T18:22:30.945066,1782132750.945011,0,0,0,1701,0.9197279456197401
2026-06-22T18:22:30.945115,1782132750.9450722,0,0,0,1701,0.8481507460307108
2026-06-22T18:22:30.945163,1782132750.94512,0,0,0,1701,0.6809387831522291
2026-06-22T18:22:30.945216,1782132750.945169,0,0,0,1701,0.4771518709076992
2026-06-22T18:22:30.945264,1782132750.9452212,0,0,0,1701,0.29022421935280773
2026-06-22T18:22:30.945312,1782132750.945269,0,0,0,1701,0.15286025321647578
2026-06-22T18:22:30.945368,1782132750.945317,0,0,0,1701,0.07663883195080601
2026-06-22T18:22:30.945421,1782132750.9453728,0,0,0,1701,0.05578856922273782
2026-06-22T18:22:30.945478,1782132750.945428,0,0,0,1701,0.07264108356529499
2026-06-22T18:22:30.945529,1782132750.945483,0,0,0,1701,0.105696828786975
2026-06-22T18:22:30.945583,1782132750.945535,0,0,0,1701,0.13715653811015296
2026-06-22T18:22:30.945632,1782132750.9455879,0,0,0,1701,0.1565306269340183
2026-06-22T18:22:30.945688,1782132750.945638,0,0,0,1701,0.16060060498127388
2026-06-22T18:22:30.945738,1782132750.945694,0,0,0,1701,0.1516102067780887
2026-06-22T18:22:30.945786,1782132750.945743,0,0,0,1701,0.1347897012009051
2026-06-22T18:22:30.945839,1782132750.945793,0,0,0,1701,0.11584030423353021
2026-06-22T18:22:30.945887,1782132750.945844,0,0,0,1701,0.09909603268603964
2026-06-22T18:22:30.945935,1782132750.945892,0,0,0,1701,0.08676808208046927
2026-06-22T18:22:30.945983,1782132750.94594,0,0,0,1701,0.07909586136842706
2026-06-22T18:22:30.946030,1782132750.9459882,0,0,0,1701,0.07498092121037551
2026-06-22T18:22:30.946078,1782132750.9460359,0,0,0,1701,0.07275695886478566
2026-06-22T18:22:30.946126,1782132750.946083,0,0,0,1701,0.07085784181238966
2026-06-22T18:22:30.946174,1782132750.946132,0,0,0,1701,0.06822935073181693
2026-06-22T18:22:30.946221,1782132750.9461792,0,0,0,1701,0.0644464588906961
2026-06-22T18:22:30.946268,1782132750.946226,0,0,0,1701,0.05960803231868023
2026-06-22T18:22:30.946316,1782132750.946274,0,0,0,1701,0.054122925239485455
2026-06-22T18:22:30.946363,1782132750.946321,0,0,0,1701,0.04848561370804
2026-06-22T18:22:30.946411,1782132750.946368,0,0,0,1701,0.04310579893748856
2026-06-22T18:22:30.946459,1782132750.9464161,0,0,0,1701,0.03822133371123728
2026-06-22T18:22:30.946509,1782132750.946464,0,0,0,1701,0.03389083018971544
2026-06-22T18:22:30.946557,1782132750.946514,0,0,0,1701,0.030039768783511344
2026-06-22T18:22:30.946607,1782132750.946563,0,0,0,1701,0.026527686848172274
2026-06-22T18:22:30.946654,1782132750.946612,0,0,0,1701,0.023210132546996075
2026-06-22T18:22:30.946702,1782132750.94666,0,0,0,1701,0.01997999313194404
2026-06-22T18:22:30.946751,1782132750.946708,0,0,0,1701,0.01678377194400633
2026-06-22T18:22:30.946800,1782132750.9467561,0,0,0,1701,0.013616948833578373
2026-06-22T18:22:30.946848,1782132750.946805,0,0,0,1701,0.010517184931434543
2026-06-22T18:22:30.946896,1782132750.9468532,0,0,0,1701,0.007588030194476185
2026-06-22T18:22:30.946943,1782132750.946901,0,0,0,1701,0.005042955038314824
2026-06-22T18:22:30.946991,1782132750.946948,0,0,0,1701,0.00318977356650672
2026-06-22T18:22:30.947038,1782132750.946996,0,0,0,1701,0.002317163010549461
2026-06-22T18:22:30.947085,1782132750.9470432,0,0,0,1701,0.002560161972632794
2026-06-22T18:22:30.947133,1782132750.94709,0,0,0,1701,0.0038391250681787444
2026-06-22T18:22:30.947770,1782132750.9477172,0,0,0,1701,0.00589287175405854
2026-06-22T18:22:30.947818,1782132750.947778,0,0,0,1701,0.008370079063124512
2026-06-22T18:22:30.947863,1782132750.9478242,0,0,0,1701,0.010930463658600344
2026-06-22T18:22:30.947910,1782132750.9478688,0,0,0,1701,0.013319326010710203
2026-06-22T18:22:30.947954,1782132750.947916,0,0,0,1701,0.01539966238766821
2026-06-22T18:22:30.947998,1782132750.947959,0,0,0,1701,0.017144618056548558
2026-06-22T18:22:30.948054,1782132750.948003,0,0,0,1701,0.018604300991572804
2026-06-22T18:22:30.948099,1782132750.9480588,0,0,0,1701,0.019864068332545975
2026-06-22T18:22:30.948144,1782132750.948104,0,0,0,1701,0.021008315643808204
2026-06-22T18:22:30.948188,1782132750.948149,0,0,0,1701,0.02209763994616273
2026-06-22T18:22:30.948234,1782132750.948195,0,0,0,1701,0.023160897715433705
2026-06-22T18:22:30.948280,1782132750.948241,0,0,0,1701,0.02419904955138128
2026-06-22T18:22:30.948326,1782132750.948286,0,0,0,1701,0.025195510249962236
2026-06-22T18:22:30.948370,1782132750.948331,0,0,0,1701,0.02612777703616175
2026-06-22T18:22:30.948415,1782132750.9483762,0,0,0,1701,0.026976603260026252
2026-06-22T18:22:30.948460,1782132750.948421,0,0,0,1701,0.02773099801120785
2026-06-22T18:22:30.948506,1782132750.9484658,0,0,0,1701,0.02838911702203442
2026-06-22T18:22:30.948550,1782132750.948511,0,0,0,1701,0.028956245847844897
2026-06-22T18:22:30.948595,1782132750.948556,0,0,0,1701,0.029441472200407923
2026-06-22T18:22:30.948640,1782132750.948601,0,0,0,1701,0.029854450067743496
2026-06-22T18:22:30.948684,1782132750.948645,0,0,0,1701,0.030203136960038162
2026-06-22T18:22:30.948729,1782132750.94869,0,0,0,1701,0.03049279973874831
2026-06-22T18:22:30.948774,1782132750.948734,0,0,0,1701,0.030726122078585143
2026-06-22T18:22:30.948820,1782132750.94878,0,0,0,1701,0.03090399454809855
2026-06-22T18:22:30.948864,1782132750.9488251,0,0,0,1701,0.03102652345124484
2026-06-22T18:22:30.948909,1782132750.94887,0,0,0,1701,0.031093896470605405
2026-06-22T18:22:30.948953,1782132750.948915,0,0,0,1701,0.031106911253960562
2026-06-22T18:22:30.948997,1782132750.948958,0,0,0,1701,0.03106713658990169
2026-06-22T18:22:30.949046,1782132750.9490051,0,0,0,1701,0.030976790205126344
2026-06-22T18:22:30.949090,1782132750.949051,0,0,0,1701,0.030838467535650012
2026-06-22T18:22:30.949135,1782132750.949096,0,0,0,1701,0.03065485048020026
2026-06-22T18:22:30.949180,1782132750.949141,0,0,0,1701,0.030428485282647275
2026-06-22T18:22:30.949230,1782132750.94919,0,0,0,1701,0.030161667737270036
2026-06-22T18:22:30.949280,1782132750.94924,0,0,0,1701,0.029856430156930625
2026-06-22T18:22:30.949328,1782132750.9492888,0,0,0,1701,0.029514597796130606
2026-06-22T18:22:30.949376,1782132750.949339,0,0,0,1701,0.029137874226365015
2026-06-22T18:22:30.949417,1782132750.9493802,0,0,0,1701,0.028727921286598245
2026-06-22T18:22:30.949461,1782132750.949425,0,0,0,1701,0.028286412896409412
2026-06-22T18:22:30.949506,1782132750.9494689,0,0,0,1701,0.027815056707611543
2026-06-22T18:22:30.949554,1782132750.949517,0,0,0,1701,0.027315588776157328
2026-06-22T18:22:30.949595,1782132750.949558,0,0,0,1701,0.02678975222641043
2026-06-22T18:22:30.949640,1782132750.949603,0,0,0,1701,0.026239271531243002
2026-06-22T18:22:30.949681,1782132750.949645,0,0,0,1701,0.025665831173162616
2026-06-22T18:22:30.949721,1782132750.949685,0,0,0,1701,0.025071063128532273
2026-06-22T18:22:30.949769,1782132750.9497259,0,0,0,1701,0.024456543565626477
2026-06-22T18:22:30.949812,1782132750.949774,0,0,0,1701,0.023823796415044052
2026-06-22T18:22:30.949857,1782132750.9498172,0,0,0,1701,0.02317430036344264
2026-06-22T18:22:30.949900,1782132750.949862,0,0,0,1701,0.022509496077986205
2026-06-22T18:22:30.949944,1782132750.949905,0,0,0,1701,0.021830791535715644
2026-06-22T18:22:30.949987,1782132750.94995,0,0,0,1701,0.021139564622313735
2026-06-22T18:22:30.950031,1782132750.949992,0,0,0,1701,0.020437163235517267
2026-06-22T18:22:30.950074,1782132750.950036,0,0,0,1701,0.0197249037550121
2026-06-22T18:22:30.950124,1782132750.950079,0,0,0,1701,0.019004068902940586
2026-06-22T18:22:30.950168,1782132750.9501288,0,0,0,1701,0.018275905835157577
2026-06-22T18:22:30.950283,1782132750.9502301,0,0,0,1701,0.017541624947173713
2026-06-22T18:22:30.950334,1782132750.950291,0,0,0,1701,0.016802399511586755
2026-06-22T18:22:30.950381,1782132750.95034,0,0,0,1701,0.01605936599317744
2026-06-22T18:22:30.950428,1782132750.950387,0,0,0,1701,0.015313624756039104
2026-06-22T18:22:30.950474,1782132750.950434,0,0,0,1701,0.014566240872331573
2026-06-22T18:22:30.950518,1782132750.950479,0,0,0,1701,0.013818244821028778
2026-06-22T18:22:30.950562,1782132750.950523,0,0,0,1701,0.01307063297565299
2026-06-22T18:22:30.950606,1782132750.950567,0,0,0,1701,0.012324367879998917
2026-06-22T18:22:30.950651,1782132750.950612,0,0,0,1701,0.011580378375766663
2026-06-22T18:22:30.950694,1782132750.950656,0,0,0,1701,0.010839559669905383
2026-06-22T18:22:30.950739,1782132750.9507,0,0,0,1701,0.010102773420055094
2026-06-22T18:22:30.950782,1782132750.9507442,0,0,0,1701,0.009370847888161893
2026-06-22T18:22:30.950827,1782132750.950788,0,0,0,1701,0.008644578179783624
2026-06-22T18:22:30.950870,1782132750.9508321,0,0,0,1701,0.007924726560480837
2026-06-22T18:22:30.950920,1782132750.9508748,0,0,0,1701,0.007212022826099381
2026-06-22T18:22:30.950965,1782132750.950926,0,0,0,1701,0.006507164700739706
2026-06-22T18:22:30.951011,1782132750.950971,0,0,0,1701,0.005810818241536695
2026-06-22T18:22:30.951056,1782132750.951016,0,0,0,1701,0.005123618238595466
2026-06-22T18:22:30.951101,1782132750.951061,0,0,0,1701,0.004446168607563777
2026-06-22T18:22:30.951146,1782132750.951106,0,0,0,1701,0.0037790427788198175
2026-06-22T18:22:30.951191,1782132750.9511511,0,0,0,1701,0.0031227840902120223
2026-06-22T18:22:30.951237,1782132750.951197,0,0,0,1701,0.0024789962636625716
2026-06-22T18:22:30.951290,1782132750.951243,0,0,0,1701,0.0018576230791183313
2026-06-22T18:22:30.951336,1782132750.951296,0,0,0,1701,0.001292288443490052
2026-06-22T18:22:30.951382,1782132750.9513412,0,0,0,1701,0.0008473289293849906
2026-06-22T18:22:30.951428,1782132750.951387,0,0,0,1701,0.0005983180982584426
2026-06-22T18:22:30.951474,1782132750.951434,0,0,0,1701,0.0005971813761204365
2026-06-22T18:22:30.951519,1782132750.9514802,0,0,0,1701,0.0008487389428941871
2026-06-22T18:22:30.951563,1782132750.951524,0,0,0,1701,0.0013102685039760786
2026-06-22T18:22:30.951606,1782132750.951568,0,0,0,1701,0.0019086295968937421
2026-06-22T18:22:30.951655,1782132750.9516108,0,0,0,1701,0.002563829979679108
2026-06-22T18:22:30.951700,1782132750.951661,0,0,0,1701,0.0032092029399674125
2026-06-22T18:22:30.951745,1782132750.951705,0,0,0,1701,0.00380273430008571
2026-06-22T18:22:30.951790,1782132750.9517498,0,0,0,1701,0.004328702061785634
2026-06-22T18:22:30.951835,1782132750.9517949,0,0,0,1701,0.004792056522932978
2026-06-22T18:22:30.951881,1782132750.951841,0,0,0,1701,0.0052093547733300105
2026-06-22T18:22:30.951926,1782132750.9518862,0,0,0,1701,0.005599827164537732
2026-06-22T18:22:30.951970,1782132750.951932,0,0,0,1701,0.0059789417606661835
2026-06-22T18:22:30.952014,1782132750.9519758,0,0,0,1701,0.006355345536437956
2026-06-22T18:22:30.952058,1782132750.952019,0,0,0,1701,0.006730827471558224
2026-06-22T18:22:30.952102,1782132750.952064,0,0,0,1701,0.007102236468719016
2026-06-22T18:22:30.952145,1782132750.952107,0,0,0,1701,0.007464119283155955
2026-06-22T18:22:30.952188,1782132750.95215,0,0,0,1701,0.00781107934310217
2026-06-22T18:22:30.952233,1782132750.952193,0,0,0,1701,0.00813928974920784
2026-06-22T18:22:30.952283,1782132750.9522402,0,0,0,1701,0.008447032589399333
2026-06-22T18:22:30.952328,1782132750.952288,0,0,0,1701,0.008734456459315169
2026-06-22T18:22:30.952373,1782132750.952333,0,0,0,1701,0.009002896787782398
2026-06-22T18:22:30.952418,1782132750.952378,0,0,0,1701,0.009254105177714404
2026-06-22T18:22:30.952462,1782132750.9524229,0,0,0,1701,0.00948963736854045
2026-06-22T18:22:30.952507,1782132750.952468,0,0,0,1701,0.00971051651646078
2026-06-22T18:22:30.952582,1782132750.95254,0,0,0,1701,0.00991716957603157
2026-06-22T18:22:30.952627,1782132750.952587,0,0,0,1701,0.010109558255887186
2026-06-22T18:22:30.952676,1782132750.9526331,0,0,0,1701,0.010287398806711019
2026-06-22T18:22:30.952732,1782132750.952683,0,0,0,1701,0.010450377132646
2026-06-22T18:22:30.952779,1782132750.952737,0,0,0,1701,0.010598300024958372
2026-06-22T18:22:30.952826,1782132750.9527838,0,0,0,1701,0.010731162227813168
2026-06-22T18:22:30.952873,1782132750.952831,0,0,0,1701,0.010849139955387187
2026-06-22T18:22:30.952920,1782132750.952878,0,0,0,1701,0.010952538487814323
2026-06-22T18:22:30.952966,1782132750.952925,0,0,0,1701,0.01104172468546167
2026-06-22T18:22:30.953012,1782132750.952971,0,0,0,1701,0.011117068637761043
2026-06-22T18:22:30.953058,1782132750.953017,0,0,0,1701,0.011178907543139362
2026-06-22T18:22:30.953104,1782132750.953063,0,0,0,1701,0.011227534024574168
2026-06-22T18:22:30.953150,1782132750.953109,0,0,0,1701,0.011263203414088329
2026-06-22T18:22:30.953196,1782132750.953156,0,0,0,1701,0.011286151117392406
2026-06-22T18:22:30.953243,1782132750.9532008,0,0,0,1701,0.0112966114633938
2026-06-22T18:22:30.953288,1782132750.953248,0,0,0,1701,0.011294832058689183
2026-06-22T18:22:30.953336,1782132750.953293,0,0,0,1701,0.011281081047254478
2026-06-22T18:22:30.953383,1782132750.953341,0,0,0,1701,0.01125564759677442
2026-06-22T18:22:30.953429,1782132750.953388,0,0,0,1701,0.011218837733005705
2026-06-22T18:22:30.953475,1782132750.9534342,78,0,0,1694,0.013704626664748192
2026-06-22T18:22:30.953527,1782132750.95348,78,0,0,1694,0.03485692040710742
2026-06-22T18:22:30.953575,1782132750.953533,78,0,0,1694,0.11338536775853003
2026-06-22T18:22:30.953624,1782132750.9535801,78,0,0,1694,0.28588138386880835
2026-06-22T18:22:30.953672,1782132750.953629,78,0,0,1694,0.5408241826408271
2026-06-22T18:22:30.953720,1782132750.953677,78,0,0,1694,0.8111323546803757
2026-06-22T18:22:30.953768,1782132750.9537249,78,0,0,1694,1.0107268478798463
2026-06-22T18:22:30.953983,1782132750.953923,78,0,0,1694,1.0745381449599638
2026-06-22T18:22:30.954037,1782132750.953991,78,0,0,1694,0.9873649335542998
2026-06-22T18:22:30.954083,1782132750.954043,78,0,0,1694,0.7895538969508687
2026-06-22T18:22:30.954128,1782132750.954089,78,0,0,1694,0.5500392868026103
2026-06-22T18:22:30.954172,1782132750.954134,78,0,0,1694,0.33088253694160996
2026-06-22T18:22:30.954214,1782132750.9541771,78,0,0,1694,0.16996509588989606
2026-06-22T18:22:30.954261,1782132750.954219,78,0,0,1694,0.08062013518946913
2026-06-22T18:22:30.954307,1782132750.954268,78,0,0,1694,0.056031204067256285
2026-06-22T18:22:30.954352,1782132750.9543118,78,0,0,1694,0.07555685650186408
2026-06-22T18:22:30.954395,1782132750.954357,78,0,0,1694,0.11410500598085829
2026-06-22T18:22:30.954439,1782132750.954401,78,0,0,1694,0.15089783504034815
2026-06-22T18:22:30.954482,1782132750.954444,78,0,0,1694,0.17367556290939132
2026-06-22T18:22:30.954536,1782132750.954488,78,0,0,1694,0.17865410324214195
2026-06-22T18:22:30.954582,1782132750.9545422,78,0,0,1694,0.1684215026717252
2026-06-22T18:22:30.954627,1782132750.954587,78,0,0,1694,0.1490560004171103
2026-06-22T18:22:30.954672,1782132750.954632,78,0,0,1694,0.12719468598434489
2026-06-22T18:22:30.954717,1782132750.954677,78,0,0,1694,0.1078891775791902
2026-06-22T18:22:30.954763,1782132750.9547222,78,0,0,1694,0.09372175734870458
2026-06-22T18:22:30.954809,1782132750.954768,78,0,0,1694,0.08497815932923
2026-06-22T18:22:30.954854,1782132750.954814,78,0,0,1694,0.08038389932411866
2026-06-22T18:22:30.954899,1782132750.954859,78,0,0,1694,0.07800035007959294
2026-06-22T18:22:30.954943,1782132750.954904,78,0,0,1694,0.07600310265284708
2026-06-22T18:22:30.954983,1782132750.954947,78,0,0,1694,0.0731624294635393
2026-06-22T18:22:30.955024,1782132750.954988,78,0,0,1694,0.06898088825067125
2026-06-22T18:22:30.955065,1782132750.955028,78,0,0,1694,0.06357147313396791
2026-06-22T18:22:30.955105,1782132750.95507,78,0,0,1694,0.05740892332550532
2026-06-22T18:22:30.955153,1782132750.9551098,78,0,0,1694,0.05106849518587777
2026-06-22T18:22:30.955201,1782132750.955158,78,0,0,1694,0.04502733501218466
2026-06-22T18:22:30.955250,1782132750.9552069,78,0,0,1694,0.03956277944401232
2026-06-22T18:22:30.955293,1782132750.955255,78,0,0,1694,0.03474346699318463
2026-06-22T18:22:30.955334,1782132750.955298,78,0,0,1694,0.03048284483963907
2026-06-22T18:22:30.955379,1782132750.955339,78,0,0,1694,0.026617335165766167
2026-06-22T18:22:30.955423,1782132750.955385,78,0,0,1694,0.022978499450328097
2026-06-22T18:22:30.955469,1782132750.9554281,78,0,0,1694,0.019441240262012494
2026-06-22T18:22:30.955513,1782132750.9554749,78,0,0,1694,0.015942845847179202
2026-06-22T18:22:30.955554,1782132750.955518,78,0,0,1694,0.012485649969328837
2026-06-22T18:22:30.955595,1782132750.9555578,78,0,0,1694,0.009158594650379838
2026-06-22T18:22:30.955635,1782132750.955599,78,0,0,1694,0.006183917127631358
2026-06-22T18:22:30.955676,1782132750.95564,78,0,0,1694,0.00391121549029599
2026-06-22T18:22:30.955723,1782132750.955681,78,0,0,1694,0.0026968496161320636
2026-06-22T18:22:30.955767,1782132750.9557278,78,0,0,1694,0.0027400932953777265
2026-06-22T18:22:30.955810,1782132750.955772,78,0,0,1694,0.003994010285150641
2026-06-22T18:22:30.955851,1782132750.9558148,78,0,0,1694,0.006188684228331371
2026-06-22T18:22:30.955892,1782132750.9558558,78,0,0,1694,0.008930392016582033
2026-06-22T18:22:30.955933,1782132750.955897,78,0,0,1694,0.011820260505820877
2026-06-22T18:22:30.955973,1782132750.955938,78,0,0,1694,0.014547099358040716
2026-06-22T18:22:30.956014,1782132750.955978,78,0,0,1694,0.01693245500598842
2026-06-22T18:22:30.956054,1782132750.956019,78,0,0,1694,0.018928283874256904
2026-06-22T18:22:30.956095,1782132750.956059,78,0,0,1694,0.020582074865302318
2026-06-22T18:22:30.956135,1782132750.9561,78,0,0,1694,0.02198916123356072
2026-06-22T18:22:30.956176,1782132750.95614,78,0,0,1694,0.02324927566983468
2026-06-22T18:22:30.956220,1782132750.956181,78,0,0,1694,0.02443760762217122
2026-06-22T18:22:30.956265,1782132750.956227,78,0,0,1694,0.025593156960376808
2026-06-22T18:22:30.956308,1782132750.95627,78,0,0,1694,0.026721448127470564
2026-06-22T18:22:30.956350,1782132750.9563122,78,0,0,1694,0.02780572312221382
2026-06-22T18:22:30.956402,1782132750.956356,78,0,0,1694,0.02882044777378851
2026-06-22T18:22:30.956452,1782132750.956407,78,0,0,1694,0.02974250241307577
2026-06-22T18:22:30.956500,1782132750.956459,78,0,0,1694,0.030557719411641725
2026-06-22T18:22:30.956560,1782132750.956508,78,0,0,1694,0.031262568564279156
2026-06-22T18:22:30.956608,1782132750.956567,78,0,0,1694,0.031862229971558256
2026-06-22T18:22:30.956651,1782132750.956613,78,0,0,1694,0.0323668750538637
2026-06-22T18:22:30.956697,1782132750.9566562,78,0,0,1694,0.03278783873515889
2026-06-22T18:22:30.956745,1782132750.956704,78,0,0,1694,0.033134802120600076
2026-06-22T18:22:30.956789,1782132750.9567502,78,0,0,1694,0.033414424531590506
2026-06-22T18:22:30.956831,1782132750.956794,78,0,0,1694,0.03363029970082621
2026-06-22T18:22:30.956872,1782132750.956836,78,0,0,1694,0.033783781316134465
2026-06-22T18:22:30.956919,1782132750.956877,78,0,0,1694,0.033875138184891615
2026-06-22T18:22:30.956968,1782132750.956924,78,0,0,1694,0.03390459666911348
2026-06-22T18:22:30.957013,1782132750.956973,78,0,0,1694,0.03387301590432073
2026-06-22T18:22:30.957069,1782132750.9570198,78,0,0,1694,0.0337821347194427
2026-06-22T18:22:30.957111,1782132750.957074,78,0,0,1694,0.03363447158537959
2026-06-22T18:22:30.957151,1782132750.957115,78,0,0,1694,0.033433028139404165
2026-06-22T18:22:30.957204,1782132750.9571562,78,0,0,1694,0.033180949150586156
2026-06-22T18:22:30.957249,1782132750.95721,78,0,0,1694,0.032881250157029585
2026-06-22T18:22:30.957297,1782132750.957254,78,0,0,1694,0.03253666567372235
2026-06-22T18:22:30.957366,1782132750.957302,78,0,0,1694,0.0321496181910171
2026-06-22T18:22:30.957422,1782132750.957372,78,0,0,1694,0.031722274028412635
2026-06-22T18:22:30.957475,1782132750.9574301,78,0,0,1694,0.03125663957901873
2026-06-22T18:22:30.957519,1782132750.957481,78,0,0,1694,0.030754656482430497
2026-06-22T18:22:30.957571,1782132750.957528,78,0,0,1694,0.030218269200824377
2026-06-22T18:22:30.957624,1782132750.957577,78,0,0,1694,0.029649455624979344
2026-06-22T18:22:30.957689,1782132750.957637,78,0,0,1694,0.02905022508239015
2026-06-22T18:22:30.957736,1782132750.957694,78,0,0,1694,0.02842259578185625
2026-06-22T18:22:30.957794,1782132750.9577532,78,0,0,1694,0.02776856529203206
2026-06-22T18:22:30.957836,1782132750.9578,78,0,0,1694,0.027090084826171083
2026-06-22T18:22:30.957877,1782132750.957841,78,0,0,1694,0.02638904323716116
2026-06-22T18:22:30.957927,1782132750.9578822,78,0,0,1694,0.02566726181034016
2026-06-22T18:22:30.957970,1782132750.957932,78,0,0,1694,0.024926497517439833
2026-06-22T18:22:30.958013,1782132750.9579751,78,0,0,1694,0.02416845083825576
2026-06-22T18:22:30.958062,1782132750.958018,78,0,0,1694,0.023394774347718028
2026-06-22T18:22:30.958108,1782132750.958068,78,0,0,1694,0.022607079397863546
2026-06-22T18:22:30.958152,1782132750.958113,78,0,0,1694,0.02180693971022116
2026-06-22T18:22:30.958206,1782132750.958157,78,0,0,1694,0.020995891990030404
2026-06-22T18:22:30.958249,1782132750.9582112,78,0,0,1694,0.020175434480910942
2026-06-22T18:22:30.958292,1782132750.958254,78,0,0,1694,0.019347024641730784
2026-06-22T18:22:30.958336,1782132750.958297,78,0,0,1694,0.01851207696418849
2026-06-22T18:22:30.958387,1782132750.958343,78,0,0,1694,0.017671961556504294
2026-06-22T18:22:30.958432,1782132750.9583921,78,0,0,1694,0.01682800368763286
2026-06-22T18:22:30.958532,1782132750.9584892,78,0,0,1694,0.015981484152531908
2026-06-22T18:22:30.958577,1782132750.958538,78,0,0,1694,0.0151336401422008
2026-06-22T18:22:30.958622,1782132750.958583,78,0,0,1694,0.014285666276919434
2026-06-22T18:22:30.958667,1782132750.9586282,78,0,0,1694,0.013438715541030382
2026-06-22T18:22:30.958713,1782132750.958673,78,0,0,1694,0.012593899983045196
2026-06-22T18:22:30.958760,1782132750.958718,78,0,0,1694,0.01175229116436233
2026-06-22T18:22:30.958812,1782132750.9587672,78,0,0,1694,0.010914920421829457
2026-06-22T18:22:30.958873,1782132750.958834,78,0,0,1694,0.010082779043888365
2026-06-22T18:22:30.958917,1782132750.958878,78,0,0,1694,0.00925681845409952
2026-06-22T18:22:30.958977,1782132750.958924,78,0,0,1694,0.008437950465399822
2026-06-22T18:22:30.959080,1782132750.958984,78,0,0,1694,0.007627047630737004
2026-06-22T18:22:30.959153,1782132750.959095,78,0,0,1694,0.006824943683949245
2026-06-22T18:22:30.959214,1782132750.959162,78,0,0,1694,0.006032434045784366
2026-06-22T18:22:30.959274,1782132750.959224,78,0,0,1694,0.005250276364612379
2026-06-22T18:22:30.959370,1782132750.9592829,78,0,0,1694,0.004479191066376402
2026-06-22T18:22:30.959428,1782132750.9593768,78,0,0,1694,0.0037198618985965007
2026-06-22T18:22:30.959485,1782132750.959435,78,0,0,1694,0.002973440294652058
2026-06-22T18:22:30.959541,1782132750.9594932,78,0,0,1694,0.0022481386960259615
2026-06-22T18:22:30.959608,1782132750.959548,78,0,0,1694,0.0015774094715155355
2026-06-22T18:22:30.959668,1782132750.9596128,78,0,0,1694,0.0010326801734973133
2026-06-22T18:22:30.959723,1782132750.9596748,78,0,0,1694,0.0007044866479885657
2026-06-22T18:22:30.959783,1782132750.959732,78,0,0,1694,0.0006607722277574611
2026-06-22T18:22:30.959841,1782132750.959789,78,0,0,1694,0.0009157336080081437
2026-06-22T18:22:30.959904,1782132750.9598489,78,0,0,1694,0.0014259534780164192
2026-06-22T18:22:30.959961,1782132750.9599092,78,0,0,1694,0.0021087456949372215
2026-06-22T18:22:30.960019,1782132750.959969,78,0,0,1694,0.002869766572479008
2026-06-22T18:22:30.960074,1782132750.960026,78,0,0,1694,0.003627803136791963
2026-06-22T18:22:30.960123,1782132750.96008,78,0,0,1694,0.004329594491517736
2026-06-22T18:22:30.960171,1782132750.960128,78,0,0,1694,0.004953096786693127
2026-06-22T18:22:30.960219,1782132750.960177,78,0,0,1694,0.0055017030835103845
2026-06-22T18:22:30.960276,1782132750.960225,78,0,0,1694,0.005993830071891128
2026-06-22T18:22:30.960334,1782132750.960282,78,0,0,1694,0.006452201584107892
2026-06-22T18:22:30.960409,1782132750.96034,78,0,0,1694,0.006895824826484774
2026-06-22T18:22:30.960458,1782132750.960415,78,0,0,1694,0.007335903280166268
2026-06-22T18:22:30.960506,1782132750.9604638,78,0,0,1694,0.007775416948132072
2026-06-22T18:22:30.960554,1782132750.960512,78,0,0,1694,0.008211179977018465
2026-06-22T18:22:30.960602,1782132750.9605591,78,0,0,1694,0.00863691580320347
2026-06-22T18:22:30.960649,1782132750.960607,78,0,0,1694,0.009046122006556322
2026-06-22T18:22:30.960700,1782132750.9606552,78,0,0,1694,0.009433991091113958
2026-06-22T18:22:30.960759,1782132750.9607072,78,0,0,1694,0.00979817903510383
2026-06-22T18:22:30.960821,1782132750.960767,78,0,0,1694,0.010138611918673282
2026-06-22T18:22:30.960877,1782132750.9608269,78,0,0,1694,0.010456725001361081
2026-06-22T18:22:30.960934,1782132750.960885,78,0,0,1694,0.010754549420041237
2026-06-22T18:22:30.960994,1782132750.960939,78,0,0,1694,0.011033958039795016
2026-06-22T18:22:30.961049,1782132750.961001,78,0,0,1694,0.011296227062492632
2026-06-22T18:22:30.961098,1782132750.9610538,78,0,0,1694,0.011541925581363474
2026-06-22T18:22:30.961156,1782132750.9611049,78,0,0,1694,0.01177104839388107
2026-06-22T18:22:30.961209,1782132750.961163,78,0,0,1694,0.011983268602648419
2026-06-22T18:22:30.961263,1782132750.961215,78,0,0,1694,0.012178196284931152
2026-06-22T18:22:30.961314,1782132750.96127,78,0,0,1694,0.012355567916761493
2026-06-22T18:22:30.961361,1782132750.961319,78,0,0,1694,0.012515337347808124
2026-06-22T18:22:30.961420,1782132750.9613671,78,0,0,1694,0.012657677207361799
2026-06-22T18:22:30.961484,1782132750.9614289,78,0,0,1694,0.012782921764313216
2026-06-22T18:22:30.961536,1782132750.96149,78,0,0,1694,0.012891487840807766
2026-06-22T18:22:30.961588,1782132750.961542,78,0,0,1694,0.012983803661108522
2026-06-22T18:22:30.961647,1782132750.9615948,0,0,0,1712,0.019575384478473387
2026-06-22T18:22:30.961710,1782132750.961654,22,0,0,1705,0.07671230447036942
2026-06-22T18:22:30.961761,1782132750.961716,6,0,0,1702,0.29899085817472704
2026-06-22T18:22:30.961809,1782132750.961767,4,0,0,1697,0.8059654705747522
2026-06-22T18:22:30.961857,1782132750.961814,48,0,0,1705,1.5628521947823426
2026-06-22T18:22:30.961915,1782132750.9618618,35,0,0,1712,2.3414260930643698
2026-06-22T18:22:30.961972,1782132750.9619231,5,0,0,1703,2.876689805499658
2026-06-22T18:22:30.962034,1782132750.961979,0,0,0,1697,3.0376427488753808
2026-06-22T18:22:30.962088,1782132750.9620411,17,0,0,1693,2.893113256916379
2026-06-22T18:22:30.962142,1782132750.962095,75,0,0,1703,2.6358958387933535
2026-06-22T18:22:30.962220,1782132750.9621491,17,0,0,1709,2.409911626567742
2026-06-22T18:22:30.962277,1782132750.96223,0,0,0,1686,2.233235604799785
2026-06-22T18:22:30.962332,1782132750.962283,1,0,0,1694,2.0874449070008585
2026-06-22T18:22:30.962388,1782132750.9623392,38,0,0,1702,2.052523166717238
2026-06-22T18:22:30.962443,1782132750.962395,0,0,0,1706,2.3049524402160695
2026-06-22T18:22:30.962505,1782132750.962451,19,0,0,1705,2.9254778253570817
2026-06-22T18:22:30.962557,1782132750.962511,0,0,0,1701,3.760134431005034
2026-06-22T18:22:30.962618,1782132750.962564,0,0,0,1697,4.486316415025147
2026-06-22T18:22:30.962674,1782132750.962624,45,0,0,1710,4.77402993025882
2026-06-22T18:22:30.962729,1782132750.962681,16,0,0,1707,4.461086023409917
2026-06-22T18:22:30.962783,1782132750.9627361,20,0,0,1706,3.6568369384800734
2026-06-22T18:22:30.962854,1782132750.9627898,0,0,0,1701,2.6745500817747216
2026-06-22T18:22:30.962911,1782132750.96286,27,0,0,1698,1.8411287652044568
2026-06-22T18:22:30.962960,1782132750.9629178,55,0,0,1707,1.3478991454226164
2026-06-22T18:22:30.963008,1782132750.962966,50,0,0,1709,1.231008267769307
2026-06-22T18:22:30.963057,1782132750.963014,16,0,0,1696,1.4227252898386056
2026-06-22T18:22:30.963168,1782132750.963062,0,0,0,1697,1.8004960235272836
2026-06-22T18:22:30.963251,1782132750.9631748,29,0,0,1679,2.239091594803003
2026-06-22T18:22:30.963312,1782132750.96326,0,0,0,1703,2.6705420451162216
2026-06-22T18:22:30.963375,1782132750.96332,61,0,0,1703,3.100093605621867
2026-06-22T18:22:30.963435,1782132750.9633842,25,0,0,1701,3.5536734491933424
2026-06-22T18:22:30.963486,1782132750.963441,0,0,0,1705,4.007718090387407
2026-06-22T18:22:30.963545,1782132750.9634938,65,0,0,1702,4.401624902152277
2026-06-22T18:22:30.963606,1782132750.963552,0,0,0,1700,4.713168221623531
2026-06-22T18:22:30.963653,1782132750.963611,16,0,0,1699,4.925546895301901
2026-06-22T18:22:30.963713,1782132750.963659,94,0,0,1702,4.93735034305022
2026-06-22T18:22:30.963776,1782132750.9637198,45,0,0,1699,4.633771552712029
2026-06-22T18:22:30.963826,1782132750.963783,0,0,0,1706,4.04793130245132
2026-06-22T18:22:30.963875,1782132750.9638321,10,0,0,1698,3.382895469662778
2026-06-22T18:22:30.963932,1782132750.963882,16,0,0,1695,2.8808354379587864
2026-06-22T18:22:30.963986,1782132750.9639401,106,0,0,1705,2.6732276788697416
2026-06-22T18:22:30.964039,1782132750.963991,16,0,0,1709,2.7113656676684146
2026-06-22T18:22:30.964094,1782132750.964045,27,0,0,1709,2.828581690855938
2026-06-22T18:22:30.964142,1782132750.9640992,0,0,0,1691,2.8670879313407003
2026-06-22T18:22:30.964198,1782132750.964148,26,0,0,1697,2.7522305040737876
2026-06-22T18:22:30.964254,1782132750.964205,0,0,0,1703,2.525345325221863
2026-06-22T18:22:30.964311,1782132750.964261,2,0,0,1702,2.3306299312721963
2026-06-22T18:22:30.964368,1782132750.964318,25,0,0,1698,2.310707920577292
2026-06-22T18:22:30.964440,1782132750.964376,0,0,0,1677,2.5098539544681078
2026-06-22T18:22:30.964498,1782132750.964448,15,0,0,1699,2.874894560902935
2026-06-22T18:22:30.964556,1782132750.964503,48,0,0,1703,3.338456419394772
2026-06-22T18:22:30.964605,1782132750.964561,0,0,0,1703,3.9064071045501283
2026-06-22T18:22:30.964661,1782132750.964611,0,0,0,1696,4.592028401264879
2026-06-22T18:22:30.964719,1782132750.964669,44,0,0,1697,5.264135977211308
2026-06-22T18:22:30.964775,1782132750.964726,74,0,0,1706,5.666294231506265
2026-06-22T18:22:30.964833,1782132750.964782,0,0,0,1699,5.595546697253821
2026-06-22T18:22:30.964888,1782132750.96484,19,0,0,1701,5.060454546617945
2026-06-22T18:22:30.965126,1782132750.96507,18,0,0,1708,4.297817042246118
2026-06-22T18:22:30.965173,1782132750.965132,0,0,0,1701,3.6089772461663094
2026-06-22T18:22:30.965216,1782132750.965178,0,0,0,1701,3.17550396422663
2026-06-22T18:22:30.965260,1782132750.9652212,71,0,0,1706,3.0196393182011847
2026-06-22T18:22:30.965303,1782132750.9652648,70,0,0,1707,3.0472795511817905
2026-06-22T18:22:30.965346,1782132750.965308,2,0,0,1713,3.118089498685813
2026-06-22T18:22:30.965395,1782132750.9653509,7,0,0,1693,3.1351341807014435
2026-06-22T18:22:30.965440,1782132750.9654,0,0,0,1696,3.0916982113506135
2026-06-22T18:22:30.965483,1782132750.965445,0,0,0,1705,3.0736052208397173
2026-06-22T18:22:30.965526,1782132750.9654882,27,0,0,1742,3.184669279963249
2026-06-22T18:22:30.965570,1782132750.9655309,2,0,0,1694,3.428479828379252
2026-06-22T18:22:30.965622,1782132750.965576,14,0,0,1696,3.811796196591342
2026-06-22T18:22:30.965693,1782132750.965627,86,0,0,1717,4.554458351796638
2026-06-22T18:22:30.965741,1782132750.965699,39,0,0,1709,5.912691484593487
2026-06-22T18:22:30.965787,1782132750.9657469,10,0,0,1696,7.840230666340959
2026-06-22T18:22:30.965832,1782132750.9657931,27,0,0,1713,9.986406636279169
2026-06-22T18:22:30.965879,1782132750.9658382,64,0,0,1705,11.85144900007037
2026-06-22T18:22:30.965923,1782132750.965885,32,0,0,1707,12.94077821438873
2026-06-22T18:22:30.965967,1782132750.965929,32,0,0,1709,12.950573036824991
2026-06-22T18:22:30.966010,1782132750.965972,35,0,0,1708,11.869570475743684
2026-06-22T18:22:30.966054,1782132750.966016,48,0,0,1696,9.973406200442243
2026-06-22T18:22:30.966098,1782132750.966059,0,0,0,1708,7.698734344168861
2026-06-22T18:22:30.966141,1782132750.966103,0,0,0,1701,5.469325424905358
2026-06-22T18:22:30.966184,1782132750.966146,11,0,0,1705,3.619007768296757
2026-06-22T18:22:30.966227,1782132750.9661891,24,0,0,1697,2.3455040827008613
2026-06-22T18:22:30.966271,1782132750.966232,20,0,0,1703,1.6579420380764576
2026-06-22T18:22:30.966313,1782132750.9662762,11,0,0,1692,1.4095286982994057
2026-06-22T18:22:30.966357,1782132750.966319,0,0,0,1717,1.405594716105196
2026-06-22T18:22:30.966399,1782132750.966362,0,0,0,1695,1.5224715076517512
2026-06-22T18:22:30.966444,1782132750.9664052,25,0,0,1680,1.7720582428854048
2026-06-22T18:22:30.966487,1782132750.96645,65,0,0,1700,2.2440840127471464
2026-06-22T18:22:30.966530,1782132750.966492,7,0,0,1698,3.0297960699547324
2026-06-22T18:22:30.966573,1782132750.9665349,0,0,0,1701,4.232652741757774
2026-06-22T18:22:30.966623,1782132750.96658,33,0,0,1707,5.851163700773396
2026-06-22T18:22:30.966667,1782132750.966628,13,0,0,1699,7.523724427602505
2026-06-22T18:22:30.966712,1782132750.966672,12,0,0,1706,8.594915318903496
2026-06-22T18:22:30.966760,1782132750.966719,25,0,0,1709,8.548892697993596
2026-06-22T18:22:30.966810,1782132750.966766,57,0,0,1703,7.332293843784266
2026-06-22T18:22:30.966854,1782132750.966815,0,0,0,1703,5.36629368467942
2026-06-22T18:22:30.966899,1782132750.96686,16,0,0,1701,3.34435029874592
2026-06-22T18:22:30.966959,1782132750.966919,0,0,0,1706,1.8989661860593303
2026-06-22T18:22:30.967004,1782132750.966965,54,0,0,1698,1.3087877673659027
2026-06-22T18:22:30.967049,1782132750.967009,18,0,0,1707,1.4719941700341646
2026-06-22T18:22:30.967094,1782132750.9670541,0,0,0,1702,2.1199841293689587
2026-06-22T18:22:30.967138,1782132750.967099,64,0,0,1699,2.99258744223481
2026-06-22T18:22:30.967183,1782132750.967144,21,0,0,1703,3.838003388452861
2026-06-22T18:22:30.967229,1782132750.967188,38,0,0,1709,4.392703993311984
2026-06-22T18:22:30.967274,1782132750.967235,11,0,0,1701,4.472293457534123
2026-06-22T18:22:30.967319,1782132750.9672792,34,0,0,1728,4.093537884239271
2026-06-22T18:22:30.967363,1782132750.967324,117,0,0,1708,3.5251709236534308
2026-06-22T18:22:30.967408,1782132750.9673688,0,0,0,1698,3.2038875974753145
2026-06-22T18:22:30.967452,1782132750.967413,19,0,0,1693,3.4617509302686145
2026-06-22T18:22:30.967496,1782132750.967457,26,0,0,1693,4.255896432167779
2026-06-22T18:22:30.967541,1782132750.967502,51,0,0,1701,5.21778223915376
2026-06-22T18:22:30.967585,1782132750.9675462,0,0,0,1703,5.9272762818107285
2026-06-22T18:22:30.967629,1782132750.9675899,20,0,0,1709,6.103854692137328
2026-06-22T18:22:30.967673,1782132750.967634,32,0,0,1702,5.698084044529785
2026-06-22T18:22:30.967718,1782132750.967678,33,0,0,1700,4.908835588025522
2026-06-22T18:22:30.967762,1782132750.967723,31,0,0,1693,4.051303152549844
2026-06-22T18:22:30.967807,1782132750.967767,22,0,0,1684,3.3619263495849294
2026-06-22T18:22:31.019433,1782132751.019348,17,0,0,1695,2.901703621814327
2026-06-22T18:22:31.019496,1782132751.0194461,30,0,0,1700,2.602651469226382
2026-06-22T18:22:31.019551,1782132751.019503,0,0,0,1699,2.3800316122896654
2026-06-22T18:22:31.019606,1782132751.019558,65,0,0,1703,2.2003082671323315
2026-06-22T18:22:31.019660,1782132751.0196118,0,0,0,1695,2.099190374556933
2026-06-22T18:22:31.019714,1782132751.019666,41,0,0,1707,2.16688590834933
2026-06-22T18:22:31.019770,1782132751.019721,0,0,0,1698,2.474641260728414
2026-06-22T18:22:31.019823,1782132751.019776,0,0,0,1698,3.0144933053080236
2026-06-22T18:22:31.019873,1782132751.019829,0,0,0,1701,3.6916619707010114
2026-06-22T18:22:31.019924,1782132751.0198789,23,0,0,1705,4.311554488175583
2026-06-22T18:22:31.019974,1782132751.0199301,29,0,0,1706,4.621725827339515
2026-06-22T18:22:31.020024,1782132751.01998,2,0,0,1707,4.451521122085642
2026-06-22T18:22:31.020074,1782132751.02003,55,0,0,1711,3.818130102921536
2026-06-22T18:22:31.020125,1782132751.02008,0,0,0,1707,2.9051262423789845
2026-06-22T18:22:31.020174,1782132751.0201302,46,0,0,1705,1.9631830630384843
2026-06-22T18:22:31.020224,1782132751.02018,0,0,0,1703,1.2094429853037338
2026-06-22T18:22:31.020274,1782132751.0202298,7,0,0,1699,0.7578952313800275
2026-06-22T18:22:31.020325,1782132751.0202801,31,0,0,1693,0.6059033564349368
2026-06-22T18:22:31.020375,1782132751.020331,64,0,0,1699,0.674067298436645
2026-06-22T18:22:31.020426,1782132751.020381,3,0,0,1714,0.8539020427075328
2026-06-22T18:22:31.020476,1782132751.0204318,20,0,0,1701,1.0595072713450089
2026-06-22T18:22:31.020527,1782132751.020483,2,0,0,1700,1.3041703947584984
2026-06-22T18:22:31.020577,1782132751.020533,79,0,0,1706,1.7116892789606455
2026-06-22T18:22:31.020631,1782132751.020583,48,0,0,1698,2.367610149656509
2026-06-22T18:22:31.020684,1782132751.020637,16,0,0,1701,3.191415466994389
2026-06-22T18:22:31.020737,1782132751.02069,19,0,0,1712,3.993399383560139
2026-06-22T18:22:31.020790,1782132751.020743,0,0,0,1697,4.575472996878901
2026-06-22T18:22:31.020843,1782132751.0207958,0,0,0,1711,4.834814436878112
2026-06-22T18:22:31.020896,1782132751.02085,39,0,0,1703,4.872784050427397
2026-06-22T18:22:31.020948,1782132751.020902,26,0,0,1701,4.905198930305602
2026-06-22T18:22:31.021000,1782132751.0209541,10,0,0,1686,5.0063028033208425
2026-06-22T18:22:31.021052,1782132751.021006,36,0,0,1699,5.023374388977148
2026-06-22T18:22:31.021104,1782132751.0210571,30,0,0,1699,4.775490162590194
2026-06-22T18:22:31.021156,1782132751.021111,38,0,0,1706,4.269926894531729
2026-06-22T18:22:31.021208,1782132751.021162,21,0,0,1697,3.669572430934978
2026-06-22T18:22:31.021259,1782132751.0212128,1,0,0,1700,3.1103205598536148
2026-06-22T18:22:31.021310,1782132751.0212648,48,0,0,1702,2.623740556199361
2026-06-22T18:22:31.021361,1782132751.021316,43,0,0,1705,2.1950518021868257
2026-06-22T18:22:31.021413,1782132751.021367,25,0,0,1699,1.8402524667562175
2026-06-22T18:22:31.021464,1782132751.021418,22,0,0,1695,1.6127668771513672
2026-06-22T18:22:31.021516,1782132751.02147,18,0,0,1712,1.5359245312510643
2026-06-22T18:22:31.021569,1782132751.0215218,0,0,0,1696,1.6033723447573596
2026-06-22T18:22:31.021620,1782132751.021575,23,0,0,1698,1.9035406900783922
2026-06-22T18:22:31.021672,1782132751.021626,29,0,0,1700,2.6137114337081444
2026-06-22T18:22:31.021723,1782132751.021677,0,0,0,1699,3.7357189637864527
2026-06-22T18:22:31.021777,1782132751.021729,30,0,0,1699,4.932697484749802
2026-06-22T18:22:31.021828,1782132751.021783,0,0,0,1703,5.728616681529186
2026-06-22T18:22:31.021880,1782132751.021834,42,0,0,1706,5.820615602487726
2026-06-22T18:22:31.021932,1782132751.0218859,35,0,0,1677,5.217733148826251
2026-06-22T18:22:31.021983,1782132751.0219378,14,0,0,1698,4.217996017573022
2026-06-22T18:22:31.022035,1782132751.021989,35,0,0,1696,3.3308004842785244
2026-06-22T18:22:31.022087,1782132751.022041,65,0,0,1698,3.0687662547358805
2026-06-22T18:22:31.022138,1782132751.022093,16,0,0,1698,3.5898102939311305
2026-06-22T18:22:31.022190,1782132751.022144,0,0,0,1696,4.573399134096264
2026-06-22T18:22:31.022242,1782132751.022196,16,0,0,1697,5.498570944316305
2026-06-22T18:22:31.022293,1782132751.0222468,88,0,0,1695,5.945708553263882
2026-06-22T18:22:31.022346,1782132751.0222988,0,0,0,1698,5.732930739723218
2026-06-22T18:22:31.022400,1782132751.022353,43,0,0,1698,4.962836378056328
2026-06-22T18:22:31.022452,1782132751.0224059,11,0,0,1696,3.9348954546511345
2026-06-22T18:22:31.022505,1782132751.022458,49,0,0,1698,2.9453290585997656
2026-06-22T18:22:31.022558,1782132751.02251,19,0,0,1709,2.1488615948970966
2026-06-22T18:22:31.022609,1782132751.0225642,32,0,0,1702,1.5847066970115813
2026-06-22T18:22:31.022661,1782132751.022615,15,0,0,1701,1.2952714327357553
2026-06-22T18:22:31.022713,1782132751.022667,27,0,0,1697,1.357164158541687
2026-06-22T18:22:31.022766,1782132751.022719,22,0,0,1696,1.7563303416782794
2026-06-22T18:22:31.022817,1782132751.022772,41,0,0,1701,2.2913243241708594
2026-06-22T18:22:31.022869,1782132751.0228229,12,0,0,1694,2.672263956488055
2026-06-22T18:22:31.022921,1782132751.0228748,65,0,0,1694,2.717506038351471
2026-06-22T18:22:31.022972,1782132751.022926,0,0,0,1698,2.451219139184484
2026-06-22T18:22:31.023024,1782132751.022978,64,0,0,1699,2.0359475146046337
2026-06-22T18:22:31.023077,1782132751.02303,45,0,0,1702,1.648428315284172
2026-06-22T18:22:31.023129,1782132751.023083,48,0,0,1708,1.4055051805069734
2026-06-22T18:22:31.023182,1782132751.023136,0,0,0,1683,1.3376319918179127
2026-06-22T18:22:31.023235,1782132751.023189,2,0,0,1697,1.4431982261189054
2026-06-22T18:22:31.023287,1782132751.023241,0,0,0,1696,1.799366080947088
2026-06-22T18:22:31.023339,1782132751.023293,49,0,0,1702,2.51176344047549
2026-06-22T18:22:31.023390,1782132751.023344,52,0,0,1697,3.4870332213237023
2026-06-22T18:22:31.023441,1782132751.023396,0,0,0,1702,4.377016067474041
2026-06-22T18:22:31.023493,1782132751.023447,0,0,0,1713,4.80708095862396
2026-06-22T18:22:31.023544,1782132751.023499,0,0,0,1698,4.618333927607373
2026-06-22T18:22:31.023596,1782132751.02355,25,0,0,1713,3.989110580843987
2026-06-22T18:22:31.023648,1782132751.023602,14,0,0,1697,3.4043327421023
2026-06-22T18:22:31.023699,1782132751.023654,0,0,0,1697,3.373507746506711
2026-06-22T18:22:31.023751,1782132751.023705,58,0,0,1702,4.035809633445085
2026-06-22T18:22:31.023802,1782132751.023756,25,0,0,1702,5.031189480436381
2026-06-22T18:22:31.023853,1782132751.023808,30,0,0,1686,5.782387007171347
2026-06-22T18:22:31.023905,1782132751.023859,0,0,0,1700,5.903078025645879
2026-06-22T18:22:31.023956,1782132751.023911,13,0,0,1705,5.410581884330937
2026-06-22T18:22:31.024207,1782132751.024139,78,0,0,1705,4.644809769937242
2026-06-22T18:22:31.024266,1782132751.0242171,17,0,0,1702,3.97115821477593
2026-06-22T18:22:31.024319,1782132751.024273,48,0,0,1701,3.553059445011954
2026-06-22T18:22:31.024371,1782132751.0243258,21,0,0,1713,3.351731680629783
2026-06-22T18:22:31.024422,1782132751.024377,80,0,0,1701,3.226263302881775
2026-06-22T18:22:31.024472,1782132751.0244281,0,0,0,1703,3.0957713406657836
2026-06-22T18:22:31.024522,1782132751.024478,17,0,0,1681,3.0635300601787865
2026-06-22T18:22:31.024572,1782132751.0245278,0,0,0,1701,3.299719526728409
2026-06-22T18:22:31.024623,1782132751.024578,13,0,0,1703,3.8452947841463185
2026-06-22T18:22:31.024673,1782132751.024628,46,0,0,1699,4.591173311409182
2026-06-22T18:22:31.024722,1782132751.024679,1,0,0,1680,5.333128507999945
2026-06-22T18:22:31.024772,1782132751.024728,0,0,0,1699,5.821977639632512
2026-06-22T18:22:31.024821,1782132751.024777,10,0,0,1702,5.901600199883982
2026-06-22T18:22:31.024870,1782132751.0248268,16,0,0,1705,5.6375927018530385
2026-06-22T18:22:31.024920,1782132751.024876,53,0,0,1703,5.24137844337225
2026-06-22T18:22:31.024969,1782132751.024926,61,0,0,1699,4.8862745054027785
2026-06-22T18:22:31.025018,1782132751.024975,0,0,0,1703,4.625834453243712
2026-06-22T18:22:31.025068,1782132751.025024,5,0,0,1698,4.406436900315198
2026-06-22T18:22:31.025117,1782132751.0250728,32,0,0,1698,4.1467032050712875
2026-06-22T18:22:31.025166,1782132751.0251231,0,0,0,1703,3.84245840351043
2026-06-22T18:22:31.025215,1782132751.025172,58,0,0,1703,3.54282840867889
2026-06-22T18:22:31.025264,1782132751.025221,22,0,0,1697,3.2448075897189814
2026-06-22T18:22:31.025312,1782132751.025269,38,0,0,1710,2.9028724474096244
2026-06-22T18:22:31.025361,1782132751.025318,16,0,0,1696,2.558743390323224
2026-06-22T18:22:31.025410,1782132751.025367,0,0,0,1685,2.4044523596610605
2026-06-22T18:22:31.025459,1782132751.025416,29,0,0,1706,2.63559608558755
2026-06-22T18:22:31.025509,1782132751.025465,30,0,0,1699,3.265705558453001
2026-06-22T18:22:31.025558,1782132751.025515,0,0,0,1697,4.162186924157863
2026-06-22T18:22:31.025608,1782132751.025565,48,0,0,1696,5.156539639694767
2026-06-22T18:22:31.025658,1782132751.0256152,0,0,0,1694,6.02611866809379
2026-06-22T18:22:31.025708,1782132751.025664,32,0,0,1703,6.511684923088393
2026-06-22T18:22:31.025757,1782132751.025714,5,0,0,1699,6.441794630555515
2026-06-22T18:22:31.025807,1782132751.025763,19,0,0,1705,5.8256597941360475
2026-06-22T18:22:31.025854,1782132751.025813,26,0,0,1712,4.864289259185932
2026-06-22T18:22:31.025902,1782132751.02586,45,0,0,1707,3.852286773441695
2026-06-22T18:22:31.025950,1782132751.025908,21,0,0,1739,3.0368968634439186
2026-06-22T18:22:31.025998,1782132751.0259562,0,0,0,1700,2.6129953282751384
2026-06-22T18:22:31.026044,1782132751.026003,33,0,0,1701,2.814488055023715
2026-06-22T18:22:31.026091,1782132751.02605,0,0,0,1706,3.832687473704265
2026-06-22T18:22:31.026139,1782132751.0260968,19,0,0,1704,5.539422683359434
2026-06-22T18:22:31.026186,1782132751.026144,41,0,0,1703,7.431261460189392
2026-06-22T18:22:31.026233,1782132751.026191,52,0,0,1695,8.924476803911853
2026-06-22T18:22:31.026280,1782132751.026239,16,0,0,1698,9.586100802212398
2026-06-22T18:22:31.026327,1782132751.0262861,3,0,0,1697,9.21298236969976
2026-06-22T18:22:31.026375,1782132751.0263329,38,0,0,1699,7.943264427993164
2026-06-22T18:22:31.026422,1782132751.02638,54,0,0,1700,6.2184723928839665
2026-06-22T18:22:31.026469,1782132751.0264268,0,0,0,1700,4.502608708989207
2026-06-22T18:22:31.026518,1782132751.026475,37,0,0,1705,3.0653513295321373
2026-06-22T18:22:31.026566,1782132751.0265229,0,0,0,1705,1.9910325201941004
2026-06-22T18:22:31.026613,1782132751.026572,65,0,0,1707,1.261115239146927
2026-06-22T18:22:31.026661,1782132751.026619,0,0,0,1699,0.8031988658653082
2026-06-22T18:22:31.026709,1782132751.026667,27,0,0,1707,0.5344704306491784
2026-06-22T18:22:31.026756,1782132751.0267148,0,0,0,1703,0.4118856503613728
2026-06-22T18:22:31.026804,1782132751.026762,0,0,0,1703,0.44589803460785704
2026-06-22T18:22:31.026851,1782132751.0268102,22,0,0,1713,0.6507418868910455
2026-06-22T18:22:31.026900,1782132751.026857,0,0,0,1682,1.0196067753237434
2026-06-22T18:22:31.026948,1782132751.026906,0,0,0,1703,1.6113448601038152
2026-06-22T18:22:31.027001,1782132751.0269592,0,0,0,1707,2.607738864186509
2026-06-22T18:22:31.027049,1782132751.0270069,15,0,0,1705,4.119743829857596
2026-06-22T18:22:31.027096,1782132751.027054,0,0,0,1698,5.889459583178307
2026-06-22T18:22:31.027143,1782132751.027101,11,0,0,1695,7.336597903631163
2026-06-22T18:22:31.027189,1782132751.027148,85,0,0,1707,7.939766896711574
2026-06-22T18:22:31.027237,1782132751.027195,1,0,0,1709,7.516701147205298
2026-06-22T18:22:31.027284,1782132751.027242,20,0,0,1708,6.2816990253883835
2026-06-22T18:22:31.027332,1782132751.02729,16,0,0,1702,4.724573807912096
2026-06-22T18:22:31.027379,1782132751.027337,5,0,0,1707,3.315599871265775
2026-06-22T18:22:31.027426,1782132751.027384,27,0,0,1709,2.284123724200319
2026-06-22T18:22:31.027473,1782132751.027431,30,0,0,1703,1.6631068066614947
2026-06-22T18:22:31.027520,1782132751.027478,0,0,0,1707,1.413887407412051
2026-06-22T18:22:31.027567,1782132751.0275252,0,0,0,1698,1.4684178880749787
2026-06-22T18:22:31.078073,1782132751.077995,11,0,0,1707,1.74154548581355
2026-06-22T18:22:31.078146,1782132751.078084,0,0,0,1703,2.130993113172104
2026-06-22T18:22:31.078213,1782132751.078154,0,0,0,1733,2.5201578210000966
2026-06-22T18:22:31.078279,1782132751.078221,16,0,0,1703,2.850459720492352
2026-06-22T18:22:31.129990,1782132751.129868,19,0,0,1699,3.217910712578227
2026-06-22T18:22:31.130105,1782132751.1300101,0,0,0,1705,3.8054014880315137
2026-06-22T18:22:31.130210,1782132751.1301188,28,0,0,1707,4.642528128754741
2026-06-22T18:22:31.181103,1782132751.180628,29,0,0,1693,5.545787992111192
2026-06-22T18:22:31.181347,1782132751.18116,42,0,0,1702,6.305955567877928
2026-06-22T18:22:31.181508,1782132751.181372,0,0,0,1705,6.776320387544919
2026-06-22T18:22:31.232777,1782132751.2325351,59,0,0,1705,6.854586378511486
2026-06-22T18:22:31.232932,1782132751.232815,3,0,0,1697,6.540212451615186
2026-06-22T18:22:31.233056,1782132751.232949,55,0,0,1700,5.966164804429726
2026-06-22T18:22:31.233174,1782132751.233071,10,0,0,1694,5.285859987478073
2026-06-22T18:22:31.284591,1782132751.284102,0,0,0,1692,4.556855319866958
2026-06-22T18:22:31.284856,1782132751.2846851,0,0,0,1674,3.789201268924489
2026-06-22T18:22:31.285040,1782132751.2848792,82,0,0,1702,3.051521076575157
2026-06-22T18:22:31.337723,1782132751.337124,36,0,0,1706,2.487965400545188
2026-06-22T18:22:31.338121,1782132751.337827,22,0,0,1706,2.2537026911841807
2026-06-22T18:22:31.338464,1782132751.338163,28,0,0,1702,2.4093706203355305
2026-06-22T18:22:31.390611,1782132751.3902788,0,0,0,1727,2.8887288495889427
2026-06-22T18:22:31.390814,1782132751.390686,46,0,0,1698,3.5763058603509768
2026-06-22T18:22:31.390948,1782132751.390839,27,0,0,1705,4.380566803290947
2026-06-22T18:22:31.391069,1782132751.3909628,29,0,0,1703,5.235664044347407
2026-06-22T18:22:31.442225,1782132751.442081,47,0,0,1699,6.022126154846962
2026-06-22T18:22:31.442305,1782132751.4422479,18,0,0,1701,6.581583523395626
2026-06-22T18:22:31.442366,1782132751.442314,36,0,0,1712,6.87546845820268
2026-06-22T18:22:31.494392,1782132751.494205,14,0,0,1701,6.955091397018985
2026-06-22T18:22:31.494500,1782132751.494421,28,0,0,1700,6.764575637634344
2026-06-22T18:22:31.494584,1782132751.494512,0,0,0,1699,6.163300046296068
2026-06-22T18:22:31.545924,1782132751.545815,49,0,0,1703,5.165011804954286
2026-06-22T18:22:31.545990,1782132751.545942,43,0,0,1705,4.054436693198239
2026-06-22T18:22:31.546042,1782132751.545998,16,0,0,1712,3.2107420680032193
2026-06-22T18:22:31.596478,1782132751.5963662,0,0,0,1706,2.829559213414874
2026-06-22T18:22:31.596551,1782132751.5965,0,0,0,1700,2.833972071225381
2026-06-22T18:22:31.596607,1782132751.5965598,10,0,0,1711,3.0156779797416595
2026-06-22T18:22:31.596661,1782132751.596614,0,0,0,1698,3.2486053539614557
2026-06-22T18:22:31.647361,1782132751.647072,19,0,0,1702,3.605760620292966
2026-06-22T18:22:31.647456,1782132751.64739,2,0,0,1699,4.253477521001683
2026-06-22T18:22:31.647518,1782132751.647464,22,0,0,1707,5.187800103768776
2026-06-22T18:22:31.699676,1782132751.6995661,33,0,0,1711,6.112313872390878
2026-06-22T18:22:31.699750,1782132751.699696,18,0,0,1702,6.619489226071563
2026-06-22T18:22:31.699808,1782132751.699759,0,0,0,1682,6.456183251760138
2026-06-22T18:22:31.752485,1782132751.752369,50,0,0,1703,5.641386615743826
2026-06-22T18:22:31.752557,1782132751.752501,16,0,0,1700,4.49035978842218
2026-06-22T18:22:31.752617,1782132751.752565,79,0,0,1705,3.551428024942344
2026-06-22T18:22:31.752675,1782132751.752624,0,0,0,1729,3.3063741628589547
2026-06-22T18:22:31.803643,1782132751.803505,16,0,0,1710,3.846702569195866
2026-06-22T18:22:31.803712,1782132751.803659,0,0,0,1709,4.9280817955429335
2026-06-22T18:22:31.803769,1782132751.80372,64,0,0,1710,6.214858317534168
2026-06-22T18:22:31.855628,1782132751.855505,11,0,0,1703,7.3331075802616725
2026-06-22T18:22:31.855694,1782132751.855645,0,0,0,1707,7.908702227411539
2026-06-22T18:22:31.855748,1782132751.855702,25,0,0,1700,7.7507338414503
2026-06-22T18:22:31.908696,1782132751.908617,3,0,0,1702,6.924307988422814
2026-06-22T18:22:31.908756,1782132751.908709,15,0,0,1690,5.651650034551514
2026-06-22T18:22:31.908808,1782132751.908763,46,0,0,1702,4.228110849459593
2026-06-22T18:22:31.959214,1782132751.959112,0,0,0,1706,2.972006276596542
2026-06-22T18:22:31.959289,1782132751.95923,49,0,0,1701,2.1310678146999975
2026-06-22T18:22:31.959353,1782132751.959297,22,0,0,1702,1.7905881363235077
2026-06-22T18:22:31.959416,1782132751.959361,0,0,0,1697,1.8949980120662366
2026-06-22T18:22:32.010793,1782132752.010688,0,0,0,1689,2.3210562437908804
2026-06-22T18:22:32.010854,1782132752.0108092,23,0,0,1696,2.8705526646171426
2026-06-22T18:22:32.010903,1782132752.0108612,0,0,0,1701,3.2834051530963135
2026-06-22T18:22:32.063305,1782132752.063217,3,0,0,1699,3.367463338732958
2026-06-22T18:22:32.063367,1782132752.063319,30,0,0,1700,3.1166717003766946
2026-06-22T18:22:32.063421,1782132752.063375,0,0,0,1697,2.7074475853467828
2026-06-22T18:22:32.114551,1782132752.114447,16,0,0,1706,2.373944607038177
2026-06-22T18:22:32.114641,1782132752.114583,0,0,0,1706,2.255653996524079
2026-06-22T18:22:32.114701,1782132752.11465,35,0,0,1705,2.360084027883597
2026-06-22T18:22:32.165554,1782132752.1654232,64,0,0,1694,2.616591971200778
2026-06-22T18:22:32.165624,1782132752.16557,35,0,0,1712,2.9124979614081092
2026-06-22T18:22:32.165680,1782132752.165632,30,0,0,1712,3.163413215261331
2026-06-22T18:22:32.165762,1782132752.165715,16,0,0,1706,3.4081284870731103
2026-06-22T18:22:32.217522,1782132752.217417,20,0,0,1701,3.7422533314541386
2026-06-22T18:22:32.217584,1782132752.217536,38,0,0,1694,4.144445566544327
2026-06-22T18:22:32.217637,1782132752.217591,46,0,0,1725,4.453088635366421
2026-06-22T18:22:32.268049,1782132752.267968,47,0,0,1693,4.530102646537095
2026-06-22T18:22:32.268110,1782132752.268063,0,0,0,1695,4.477274433737833
2026-06-22T18:22:32.268164,1782132752.268117,102,0,0,1705,4.643568812636286
2026-06-22T18:22:32.319576,1782132752.319469,23,0,0,1700,5.281498023583671
2026-06-22T18:22:32.319660,1782132752.319594,0,0,0,1701,6.304256297966909
2026-06-22T18:22:32.319730,1782132752.319669,0,0,0,1701,7.4223002104219455
2026-06-22T18:22:32.370604,1782132752.3705049,71,0,0,1707,8.260633411709827
2026-06-22T18:22:32.370668,1782132752.3706172,0,0,0,1702,8.41665588275431
2026-06-22T18:22:32.370724,1782132752.3706748,23,0,0,1702,7.723482297320737
2026-06-22T18:22:32.370780,1782132752.370731,0,0,0,1683,6.438052190475753
2026-06-22T18:22:32.422057,1782132752.421976,0,0,0,1702,5.062796801289612
2026-06-22T18:22:32.422119,1782132752.422071,27,0,0,1709,4.0625856648356615
2026-06-22T18:22:32.422169,1782132752.422125,35,0,0,1713,3.716776764758875
2026-06-22T18:22:32.474012,1782132752.4739041,0,0,0,1697,4.00942480558388
2026-06-22T18:22:32.474083,1782132752.474028,80,0,0,1695,4.604617327918409
2026-06-22T18:22:32.474145,1782132752.474091,3,0,0,1683,5.078498702124698
2026-06-22T18:22:32.524702,1782132752.5245628,16,0,0,1708,5.217350398355317
2026-06-22T18:22:32.524792,1782132752.524724,26,0,0,1680,5.08403207195621
2026-06-22T18:22:32.524865,1782132752.5248032,47,0,0,1702,4.925798378774836
2026-06-22T18:22:32.524935,1782132752.524875,0,0,0,1699,5.070104270509083
2026-06-22T18:22:32.575795,1782132752.5757,0,0,0,1702,5.706315790861124
2026-06-22T18:22:32.575862,1782132752.575809,0,0,0,1706,6.6457512542992845
2026-06-22T18:22:32.575922,1782132752.57587,71,0,0,1707,7.426439787322455
2026-06-22T18:22:32.627749,1782132752.627661,0,0,0,1693,7.669209545265419
2026-06-22T18:22:32.627815,1782132752.6277618,0,0,0,1699,7.243945124045967
2026-06-22T18:22:32.627872,1782132752.6278222,67,0,0,1699,6.225066379677325
2026-06-22T18:22:32.679772,1782132752.679685,44,0,0,1703,4.840646970313038
2026-06-22T18:22:32.679835,1782132752.679786,7,0,0,1702,3.4178241699180876
2026-06-22T18:22:32.679891,1782132752.679842,0,0,0,1698,2.284741205175277
2026-06-22T18:22:32.730529,1782132752.730176,9,0,0,1701,1.6554470514142763
2026-06-22T18:22:32.730614,1782132752.73055,49,0,0,1701,1.5675618508998677
2026-06-22T18:22:32.730683,1782132752.730624,63,0,0,1696,1.916521990812382
2026-06-22T18:22:32.730748,1782132752.730691,3,0,0,1703,2.5059879566008005
2026-06-22T18:22:32.781985,1782132752.781831,0,0,0,1701,3.0710887320283304
2026-06-22T18:22:32.782070,1782132752.782013,20,0,0,1686,3.363109589325603
2026-06-22T18:22:32.782132,1782132752.782078,27,0,0,1696,3.305922537239403
2026-06-22T18:22:32.834300,1782132752.834209,48,0,0,1681,3.096778932214489
2026-06-22T18:22:32.834365,1782132752.834313,0,0,0,1698,3.1172245100859115
2026-06-22T18:22:32.834421,1782132752.834372,0,0,0,1696,3.6569212593043416
2026-06-22T18:22:32.887101,1782132752.8869991,48,0,0,1707,4.673548837033136
2026-06-22T18:22:32.887163,1782132752.887115,17,0,0,1744,5.8003634716588515
2026-06-22T18:22:32.887219,1782132752.8871732,17,0,0,1702,6.606450733260063
2026-06-22T18:22:32.887271,1782132752.8872252,0,0,0,1711,6.988337160661834
2026-06-22T18:22:32.938133,1782132752.9380422,0,0,0,1709,7.32176241703988
2026-06-22T18:22:32.938201,1782132752.9381492,62,0,0,1696,8.045115978525681
2026-06-22T18:22:32.938258,1782132752.938208,80,0,0,1701,9.151685249734943
2026-06-22T18:22:32.990076,1782132752.989969,0,0,0,1691,10.241446645206633
2026-06-22T18:22:32.990147,1782132752.990089,31,0,0,1703,10.87235496471432
2026-06-22T18:22:32.990211,1782132752.990155,11,0,0,1698,10.755640651724876
2026-06-22T18:22:33.041661,1782132753.0415401,17,0,0,1698,9.853325157299736
2026-06-22T18:22:33.041729,1782132753.041676,0,0,0,1735,8.400525518723772
2026-06-22T18:22:33.041784,1782132753.041736,0,0,0,1698,6.809057511954731
2026-06-22T18:22:33.092007,1782132753.09183,0,0,0,1678,5.60420250197107
2026-06-22T18:22:33.092074,1782132753.092025,32,0,0,1702,5.291204085377803
2026-06-22T18:22:33.092126,1782132753.0920808,45,0,0,1706,6.035870831053401
2026-06-22T18:22:33.092176,1782132753.092133,37,0,0,1725,7.574504616902233
2026-06-22T18:22:33.143091,1782132753.142988,0,0,0,1695,9.408081549582016
2026-06-22T18:22:33.143156,1782132753.1431081,0,0,0,1712,10.913431717228592
2026-06-22T18:22:33.143208,1782132753.143164,14,0,0,1703,11.581992639586998
2026-06-22T18:22:33.195030,1782132753.194944,1,0,0,1700,11.362080106528495
2026-06-22T18:22:33.195095,1782132753.195043,0,0,0,1698,10.54333762983253
2026-06-22T18:22:33.195156,1782132753.195106,54,0,0,1701,9.390118737895541
2026-06-22T18:22:33.246173,1782132753.2460642,27,0,0,1698,8.052296465461188
2026-06-22T18:22:33.246244,1782132753.246188,0,0,0,1702,6.6239239512367005
2026-06-22T18:22:33.246305,1782132753.246252,16,0,0,1717,5.172641966522382
2026-06-22T18:22:33.296835,1782132753.296729,2,0,0,1690,3.8251674417781847
2026-06-22T18:22:33.296902,1782132753.29685,30,0,0,1696,2.8674477104784577
2026-06-22T18:22:33.296958,1782132753.29691,16,0,0,1705,2.674763273419072
2026-06-22T18:22:33.297013,1782132753.2969651,0,0,0,1683,3.4171850110866684
2026-06-22T18:22:33.347373,1782132753.347261,33,0,0,1706,4.860070990466233
2026-06-22T18:22:33.347440,1782132753.34739,7,0,0,1691,6.556907593477165
2026-06-22T18:22:33.347495,1782132753.3474472,0,0,0,1697,8.124456828349683
2026-06-22T18:22:33.399196,1782132753.3990989,16,0,0,1697,9.23207004357067
2026-06-22T18:22:33.399272,1782132753.399211,0,0,0,1705,9.54140190975166
2026-06-22T18:22:33.399337,1782132753.3992808,22,0,0,1706,8.865218215654272
2026-06-22T18:22:33.452207,1782132753.452092,42,0,0,1691,7.339936368969743
2026-06-22T18:22:33.452283,1782132753.4522262,0,0,0,1697,5.403102983863334
2026-06-22T18:22:33.452345,1782132753.452291,41,0,0,1711,3.6491305051182357
2026-06-22T18:22:33.502728,1782132753.5026271,14,0,0,1698,2.6016771208824485
2026-06-22T18:22:33.502788,1782132753.502741,17,0,0,1694,2.453794192335622
2026-06-22T18:22:33.502840,1782132753.502795,32,0,0,1701,3.0089430455457693
2026-06-22T18:22:33.502891,1782132753.502846,25,0,0,1691,3.880219405097041
2026-06-22T18:22:33.553465,1782132753.553369,0,0,0,1710,4.759344303560433
2026-06-22T18:22:33.553528,1782132753.553479,23,0,0,1721,5.547911283955279
2026-06-22T18:22:33.553582,1782132753.553535,46,0,0,1696,6.22703925511972
2026-06-22T18:22:33.605563,1782132753.60545,0,0,0,1701,6.6909678553442085
2026-06-22T18:22:33.605638,1782132753.60558,0,0,0,1701,6.843621411553888
2026-06-22T18:22:33.605701,1782132753.605647,16,0,0,1697,6.74126073122256
2026-06-22T18:22:33.657974,1782132753.6578739,107,0,0,1706,6.514686305935925
2026-06-22T18:22:33.658047,1782132753.657991,35,0,0,1701,6.262053250156182
2026-06-22T18:22:33.658108,1782132753.6580548,0,0,0,1703,6.032711673266094
2026-06-22T18:22:33.708666,1782132753.708576,0,0,0,1701,5.798635274860853
2026-06-22T18:22:33.708730,1782132753.708679,25,0,0,1703,5.458197360238018
2026-06-22T18:22:33.708784,1782132753.7087371,6,0,0,1701,4.918918956774834
2026-06-22T18:22:33.708837,1782132753.708791,12,0,0,1700,4.171170174379414
2026-06-22T18:22:33.760279,1782132753.760179,48,0,0,1699,3.296031793187437
2026-06-22T18:22:33.760341,1782132753.760293,43,0,0,1712,2.4213406474646306
2026-06-22T18:22:33.760393,1782132753.7603478,44,0,0,1705,1.6841631384557547
2026-06-22T18:22:33.811200,1782132753.811114,16,0,0,1689,1.228323470013895
2026-06-22T18:22:33.811272,1782132753.811221,48,0,0,1701,1.1744526817933685
2026-06-22T18:22:33.811327,1782132753.811279,47,0,0,1695,1.5695144250915825
2026-06-22T18:22:33.863968,1782132753.863837,31,0,0,1706,2.3860242226865527
2026-06-22T18:22:33.864048,1782132753.863986,46,0,0,1706,3.484124588202568
2026-06-22T18:22:33.864115,1782132753.864058,17,0,0,1703,4.5296847377731915
2026-06-22T18:22:33.864496,1782132753.864435,13,0,0,1705,5.097082947243071
2026-06-22T18:22:33.915507,1782132753.915393,26,0,0,1689,4.9567720035152805
2026-06-22T18:22:33.915584,1782132753.915529,19,0,0,1703,4.252749896173502
2026-06-22T18:22:33.915643,1782132753.915592,0,0,0,1703,3.4195367972100694
2026-06-22T18:22:33.965906,1782132753.965796,13,0,0,1702,2.9082225607460455
2026-06-22T18:22:33.965970,1782132753.965919,0,0,0,1712,2.9025442639723784
2026-06-22T18:22:33.966025,1782132753.965976,0,0,0,1700,3.2734045209751645
2026-06-22T18:22:34.018744,1782132754.01865,53,0,0,1702,3.788799429461214
2026-06-22T18:22:34.018809,1782132754.018759,27,0,0,1702,4.276847978520903
2026-06-22T18:22:34.018863,1782132754.018817,0,0,0,1686,4.605344819817942
2026-06-22T18:22:34.069354,1782132754.069079,0,0,0,1698,4.674371071453458
2026-06-22T18:22:34.069434,1782132754.069372,39,0,0,1705,4.512968935147287
2026-06-22T18:22:34.069499,1782132754.069442,64,0,0,1700,4.283448083812328
2026-06-22T18:22:34.069562,1782132754.0695071,68,0,0,1699,4.124780831658185
2026-06-22T18:22:34.120638,1782132754.120532,0,0,0,1697,4.060853176916207
2026-06-22T18:22:34.120707,1782132754.120652,0,0,0,1698,4.035494500390703
2026-06-22T18:22:34.120768,1782132754.120715,21,0,0,1712,3.9405098534465757
2026-06-22T18:22:34.172807,1782132754.172699,33,0,0,1701,3.666664101277414
2026-06-22T18:22:34.172872,1782132754.1728199,55,0,0,1706,3.218341947787403
2026-06-22T18:22:34.172930,1782132754.17288,0,0,0,1691,2.762348732432946
2026-06-22T18:22:34.224913,1782132754.224823,31,0,0,1712,2.512417383806121
2026-06-22T18:22:34.224975,1782132754.224927,79,0,0,1707,2.569659085730334
2026-06-22T18:22:34.225029,1782132754.224983,5,0,0,1710,2.8962918833048295
2026-06-22T18:22:34.275506,1782132754.275417,2,0,0,1697,3.36913786806984
2026-06-22T18:22:34.275571,1782132754.275519,11,0,0,1709,3.7988247160350617
2026-06-22T18:22:34.275628,1782132754.275578,33,0,0,1701,3.9827354641415087
2026-06-22T18:22:34.275684,1782132754.275635,80,0,0,1718,3.83206698192875
2026-06-22T18:22:34.327012,1782132754.326922,11,0,0,1696,3.4328651496836855
2026-06-22T18:22:34.327083,1782132754.327025,0,0,0,1697,2.960830955632088
2026-06-22T18:22:34.327146,1782132754.327091,48,0,0,1711,2.5684326769367125
2026-06-22T18:22:34.379601,1782132754.379482,14,0,0,1708,2.3685215103434523
2026-06-22T18:22:34.379672,1782132754.379616,11,0,0,1702,2.5092172845187255
2026-06-22T18:22:34.379744,1782132754.379689,16,0,0,1715,3.1415893344143933
2026-06-22T18:22:34.431117,1782132754.4310248,0,0,0,1666,4.193758017326812
2026-06-22T18:22:34.431179,1782132754.431131,16,0,0,1712,5.365579908342675
2026-06-22T18:22:34.431230,1782132754.431186,10,0,0,1687,6.499624217693891
2026-06-22T18:22:34.431280,1782132754.431236,41,0,0,1710,7.727713371517712
2026-06-22T18:22:34.482098,1782132754.4819882,9,0,0,1711,9.108420797765238
2026-06-22T18:22:34.482163,1782132754.482116,0,0,0,1696,10.334695835438827
2026-06-22T18:22:34.482213,1782132754.4821692,0,0,0,1701,11.002235706824662
2026-06-22T18:22:34.533558,1782132754.533452,0,0,0,1697,11.063443711590049
2026-06-22T18:22:34.533630,1782132754.5335748,43,0,0,1686,10.829328547272977
2026-06-22T18:22:34.533690,1782132754.533639,19,0,0,1695,10.554462709053166
2026-06-22T18:22:34.586527,1782132754.5864289,51,0,0,1703,10.151302379864696
2026-06-22T18:22:34.586592,1782132754.586539,32,0,0,1707,9.354397565293047
2026-06-22T18:22:34.586649,1782132754.5865989,32,0,0,1712,8.117054238262396
2026-06-22T18:22:34.636993,1782132754.636875,46,0,0,1711,6.762554673727935
2026-06-22T18:22:34.637063,1782132754.637009,0,0,0,1696,5.72161145956866
2026-06-22T18:22:34.637122,1782132754.6370718,6,0,0,1701,5.173764377732462
2026-06-22T18:22:34.637179,1782132754.63713,16,0,0,1723,4.955269133584738
2026-06-22T18:22:34.688213,1782132754.6881049,69,0,0,1698,4.799487912083566
2026-06-22T18:22:34.688279,1782132754.688229,5,0,0,1703,4.7088498993329315
2026-06-22T18:22:34.688333,1782132754.688287,0,0,0,1696,5.045083548567993
2026-06-22T18:22:34.740427,1782132754.7403252,43,0,0,1712,6.096588341150567
2026-06-22T18:22:34.740495,1782132754.740442,64,0,0,1707,7.598127867042179
2026-06-22T18:22:34.740552,1782132754.740503,18,0,0,1701,8.867662802306954
2026-06-22T18:22:34.791357,1782132754.791262,23,0,0,1693,9.352327357364219
2026-06-22T18:22:34.791426,1782132754.79137,0,0,0,1697,8.883204346492082
2026-06-22T18:22:34.791490,1782132754.791434,29,0,0,1665,7.593873823606423
2026-06-22T18:22:34.841864,1782132754.841748,25,0,0,1697,5.898248445603885
2026-06-22T18:22:34.841941,1782132754.8418849,16,0,0,1697,4.492186602234001
2026-06-22T18:22:34.842002,1782132754.84195,0,0,0,1694,4.046553838972459
2026-06-22T18:22:34.842060,1782132754.842009,49,0,0,1708,4.715690458977785
2026-06-22T18:22:34.893235,1782132754.89312,15,0,0,1714,6.063791716091118
2026-06-22T18:22:34.893296,1782132754.893249,6,0,0,1694,7.46603777640926
2026-06-22T18:22:34.893349,1782132754.8933032,14,0,0,1698,8.41015784838668
2026-06-22T18:22:34.945461,1782132754.945379,0,0,0,1701,8.596677259129251
2026-06-22T18:22:34.945527,1782132754.945476,16,0,0,1709,8.02093041781187
2026-06-22T18:22:34.945586,1782132754.945537,27,0,0,1710,6.9349399630603346
2026-06-22T18:22:34.998605,1782132754.998467,29,0,0,1714,5.678424811926479
2026-06-22T18:22:34.998690,1782132754.998624,34,0,0,1678,4.505836391804797
2026-06-22T18:22:34.998760,1782132754.9987001,0,0,0,1702,3.546291888923446
2026-06-22T18:22:34.998827,1782132754.998768,0,0,0,1702,2.940153580531057
2026-06-22T18:22:35.049807,1782132755.04969,2,0,0,1700,2.879398677203646
2026-06-22T18:22:35.049883,1782132755.049825,34,0,0,1705,3.416668411979937
2026-06-22T18:22:35.049946,1782132755.0498922,65,0,0,1694,4.397983464974597
2026-06-22T18:22:35.101595,1782132755.101506,28,0,0,1706,5.620790803102559
2026-06-22T18:22:35.101656,1782132755.101608,44,0,0,1700,6.891106326565916
2026-06-22T18:22:35.101713,1782132755.1016629,43,0,0,1703,7.9927372340367
2026-06-22T18:22:35.153778,1782132755.153692,21,0,0,1693,8.738799602992513
2026-06-22T18:22:35.153840,1782132755.153791,0,0,0,1702,9.01091272564445
2026-06-22T18:22:35.153894,1782132755.153847,19,0,0,1711,8.769378430780188
2026-06-22T18:22:35.204272,1782132755.2041652,16,0,0,1700,8.078351888969335
2026-06-22T18:22:35.204347,1782132755.2042859,60,0,0,1703,7.071611171277943
2026-06-22T18:22:35.204410,1782132755.204354,3,0,0,1712,5.893447310644408
2026-06-22T18:22:35.204472,1782132755.204417,0,0,0,1696,4.707908910671812
2026-06-22T18:22:35.255661,1782132755.255572,0,0,0,1701,3.7587784726598614
2026-06-22T18:22:35.255732,1782132755.255677,46,0,0,1712,3.3535191457723625
2026-06-22T18:22:35.255795,1782132755.255741,1,0,0,1696,3.6477012530238335
2026-06-22T18:22:35.307983,1782132755.307863,0,0,0,1694,4.457041595562848
2026-06-22T18:22:35.308053,1782132755.307999,11,0,0,1722,5.384332116856969
2026-06-22T18:22:35.308111,1782132755.308061,11,0,0,1707,6.104278556043079
2026-06-22T18:22:35.360077,1782132755.3599832,47,0,0,1712,6.5807912387636796
2026-06-22T18:22:35.360157,1782132755.360088,12,0,0,1711,7.037391862019778
2026-06-22T18:22:35.360235,1782132755.360167,14,0,0,1700,7.594333817909071
2026-06-22T18:22:35.410717,1782132755.410605,51,0,0,1703,8.029701344933807
2026-06-22T18:22:35.410787,1782132755.410731,14,0,0,1733,8.001163164481916
2026-06-22T18:22:35.410846,1782132755.410794,47,0,0,1699,7.382185902571285
2026-06-22T18:22:35.410906,1782132755.4108531,32,0,0,1691,6.44140596109116
2026-06-22T18:22:35.462422,1782132755.462334,0,0,0,1696,5.747056350144513
2026-06-22T18:22:35.462480,1782132755.462434,16,0,0,1706,5.713316895894433
2026-06-22T18:22:35.462531,1782132755.462487,45,0,0,1712,6.261500369987514
2026-06-22T18:22:35.515162,1782132755.515074,68,0,0,1711,6.9686831810530245
2026-06-22T18:22:35.515225,1782132755.5151749,0,0,0,1683,7.367225429353662
2026-06-22T18:22:35.515278,1782132755.515231,0,0,0,1699,7.15076563260524
2026-06-22T18:22:35.565635,1782132755.56553,17,0,0,1727,6.326859054560654
2026-06-22T18:22:35.565710,1782132755.565652,48,0,0,1708,5.23420680440422
2026-06-22T18:22:35.565825,1782132755.565768,35,0,0,1700,4.395648254335656
2026-06-22T18:22:35.565886,1782132755.5658329,0,0,0,1680,4.295262939040915
2026-06-22T18:22:35.616829,1782132755.616723,15,0,0,1712,5.067961470540757
2026-06-22T18:22:35.616894,1782132755.616843,0,0,0,1667,6.337928566323962
2026-06-22T18:22:35.616950,1782132755.6169012,50,0,0,1730,7.643236978726734
2026-06-22T18:22:35.668188,1782132755.6680791,27,0,0,1711,9.031253862150109
2026-06-22T18:22:35.668252,1782132755.6682,0,0,0,1697,10.88073006305639
2026-06-22T18:22:35.668308,1782132755.6682591,15,0,0,1695,13.143757655567576
2026-06-22T18:22:35.721137,1782132755.721057,33,0,0,1709,15.153581446995217
2026-06-22T18:22:35.721194,1782132755.721149,28,0,0,1703,16.176772898902012
2026-06-22T18:22:35.721248,1782132755.721204,47,0,0,1695,15.821398403981421
2026-06-22T18:22:35.771600,1782132755.771489,0,0,0,1664,14.064997430364125
2026-06-22T18:22:35.771678,1782132755.771616,16,0,0,1686,11.256466795384677
2026-06-22T18:22:35.771744,1782132755.7716858,32,0,0,1698,8.034559761769051
2026-06-22T18:22:35.771808,1782132755.7717519,7,0,0,1691,5.105617613293957
2026-06-22T18:22:35.823006,1782132755.822895,19,0,0,1701,3.0755133275609197
2026-06-22T18:22:35.823074,1782132755.82302,17,0,0,1695,2.382534379482486
2026-06-22T18:22:35.823134,1782132755.823082,33,0,0,1705,3.1696744611772907
2026-06-22T18:22:35.874569,1782132755.874454,38,0,0,1718,5.063338474380834
2026-06-22T18:22:35.874642,1782132755.874583,48,0,0,1696,7.196259608944504
2026-06-22T18:22:35.874698,1782132755.874649,26,0,0,1696,8.637814901900448
2026-06-22T18:22:35.927947,1782132755.927845,32,0,0,1699,8.870249468650893
2026-06-22T18:22:35.928012,1782132755.9279628,16,0,0,1708,7.953383852271105
2026-06-22T18:22:35.928065,1782132755.928019,32,0,0,1709,6.380225667709085
2026-06-22T18:22:35.978895,1782132755.9788,38,0,0,1705,4.777420291289625
2026-06-22T18:22:35.978961,1782132755.9789078,0,0,0,1707,3.5850114439326957
2026-06-22T18:22:35.979019,1782132755.978969,0,0,0,1698,2.9405063822943442
2026-06-22T18:22:35.979075,1782132755.9790258,55,0,0,1705,2.8282782624823333
2026-06-22T18:22:36.030393,1782132756.030318,57,0,0,1709,3.1977179094480217
2026-06-22T18:22:36.030456,1782132756.030404,16,0,0,1703,3.8969726655536396
2026-06-22T18:22:36.030528,1782132756.030464,19,0,0,1699,4.613029341960915
2026-06-22T18:22:36.081674,1782132756.081563,30,0,0,1702,4.98267551959948
2026-06-22T18:22:36.081742,1782132756.08169,47,0,0,1707,4.807539820187003
2026-06-22T18:22:36.081797,1782132756.081749,59,0,0,1707,4.170770235624033
2026-06-22T18:22:36.133026,1782132756.1329222,33,0,0,1707,3.334016869156765
2026-06-22T18:22:36.133138,1782132756.1330822,0,0,0,1702,2.531944235240357
2026-06-22T18:22:36.133194,1782132756.133145,11,0,0,1690,1.8790676357715619
2026-06-22T18:22:36.133248,1782132756.133201,3,0,0,1731,1.4388661673190029
2026-06-22T18:22:36.184136,1782132756.184052,0,0,0,1715,1.3625662301461197
2026-06-22T18:22:36.184196,1782132756.184148,0,0,0,1695,1.936565382968523
2026-06-22T18:22:36.184251,1782132756.184203,16,0,0,1703,3.3662298296096393
2026-06-22T18:22:36.236093,1782132756.235991,27,0,0,1703,5.485023975253033
2026-06-22T18:22:36.236165,1782132756.236107,32,0,0,1705,7.777673047095169
2026-06-22T18:22:36.236227,1782132756.2361732,35,0,0,1702,9.614263654442835
2026-06-22T18:22:36.287304,1782132756.287188,0,0,0,1705,10.447013216852032
2026-06-22T18:22:36.287373,1782132756.287318,80,0,0,1701,10.024702961997175
2026-06-22T18:22:36.287433,1782132756.28738,7,0,0,1706,8.53818772686401
2026-06-22T18:22:36.337897,1782132756.33778,31,0,0,1717,6.498194472022966
2026-06-22T18:22:36.337972,1782132756.337912,32,0,0,1695,4.4480672021013
2026-06-22T18:22:36.338028,1782132756.3379798,0,0,0,1703,2.8077461947591815
2026-06-22T18:22:36.338082,1782132756.3380349,0,0,0,1699,1.8931377673913234
2026-06-22T18:22:36.388983,1782132756.3888981,40,0,0,1681,1.8602251774982788
2026-06-22T18:22:36.389045,1782132756.3889978,54,0,0,1697,2.5883252708487294
2026-06-22T18:22:36.389100,1782132756.389052,51,0,0,1693,3.7829860409974607
2026-06-22T18:22:36.440947,1782132756.4408598,35,0,0,1707,5.180436668243918
2026-06-22T18:22:36.441041,1782132756.440959,1,0,0,1725,6.518964746203888
2026-06-22T18:22:36.441103,1782132756.4410481,48,0,0,1698,7.437810008549306
2026-06-22T18:22:36.492240,1782132756.4921331,0,0,0,1708,7.661266840907171
2026-06-22T18:22:36.492306,1782132756.4922519,11,0,0,1697,7.292071123737078
2026-06-22T18:22:36.492367,1782132756.492314,0,0,0,1701,6.727406627672341
2026-06-22T18:22:36.542540,1782132756.542442,0,0,0,1701,6.240127403450975
2026-06-22T18:22:36.542607,1782132756.5425541,55,0,0,1706,5.7890717510192555
2026-06-22T18:22:36.542665,1782132756.542615,34,0,0,1711,5.217067265010961
2026-06-22T18:22:36.542720,1782132756.542672,0,0,0,1708,4.469871889984853
2026-06-22T18:22:36.593622,1782132756.5935092,0,0,0,1727,3.6602302158605307
2026-06-22T18:22:36.593682,1782132756.593635,16,0,0,1708,3.0510391390795544
2026-06-22T18:22:36.593736,1782132756.5936892,62,0,0,1699,2.962074249717174
2026-06-22T18:22:36.645538,1782132756.645451,34,0,0,1696,3.564520411833553
2026-06-22T18:22:36.645605,1782132756.645549,25,0,0,1699,4.666466372190126
2026-06-22T18:22:36.645665,1782132756.645612,30,0,0,1712,5.742622130656879
2026-06-22T18:22:36.698633,1782132756.698526,48,0,0,1702,6.244725743597134
2026-06-22T18:22:36.698711,1782132756.698648,16,0,0,1712,5.915880429682219
2026-06-22T18:22:36.698777,1782132756.69872,0,0,0,1696,4.918768444122413
2026-06-22T18:22:36.749234,1782132756.749137,15,0,0,1701,3.7230377106234847
2026-06-22T18:22:36.749319,1782132756.749247,28,0,0,1711,2.784836917949531
2026-06-22T18:22:36.749379,1782132756.7493272,43,0,0,1707,2.295490601774372
2026-06-22T18:22:36.749442,1782132756.749387,31,0,0,1697,2.2346468035490865
2026-06-22T18:22:36.800809,1782132756.800701,0,0,0,1697,2.5253283281603247
2026-06-22T18:22:36.800872,1782132756.800821,30,0,0,1708,3.0114853559024373
2026-06-22T18:22:36.800929,1782132756.800879,50,0,0,1702,3.4358309565872682
2026-06-22T18:22:36.853300,1782132756.8532228,53,0,0,1712,3.646782541841893
2026-06-22T18:22:36.853359,1782132756.853311,0,0,0,1693,3.7700332444705418
2026-06-22T18:22:36.853411,1782132756.853365,0,0,0,1697,4.057445288275308
2026-06-22T18:22:36.905017,1782132756.90492,26,0,0,1703,4.611729067119267
2026-06-22T18:22:36.905089,1782132756.905031,77,0,0,1709,5.285785545388546
2026-06-22T18:22:36.905154,1782132756.905097,47,0,0,1703,5.767064593189757
2026-06-22T18:22:36.905219,1782132756.905161,0,0,0,1680,5.753984861114544
2026-06-22T18:22:36.956144,1782132756.956021,1,0,0,1698,5.1532408631566975
2026-06-22T18:22:36.956210,1782132756.956157,19,0,0,1704,4.194339008268257
2026-06-22T18:22:36.956269,1782132756.956218,15,0,0,1707,3.3385541545530066
2026-06-22T18:22:37.008172,1782132757.008024,28,0,0,1716,2.971877888944227
2026-06-22T18:22:37.008243,1782132757.0081909,0,0,0,1699,3.177214849982123
2026-06-22T18:22:37.008302,1782132757.008251,68,0,0,1709,3.808177882460073
2026-06-22T18:22:37.061312,1782132757.061224,23,0,0,1685,4.653995121050195
2026-06-22T18:22:37.061373,1782132757.061325,45,0,0,1707,5.53470146024649
2026-06-22T18:22:37.061425,1782132757.0613801,95,0,0,1705,6.359980775967834
2026-06-22T18:22:37.111970,1782132757.1118562,1,0,0,1697,7.079283070813654
2026-06-22T18:22:37.112043,1782132757.1119869,11,0,0,1739,7.572745006755479
2026-06-22T18:22:37.112103,1782132757.112051,25,0,0,1712,7.772895443028895
2026-06-22T18:22:37.112161,1782132757.1121101,23,0,0,1706,7.926501838247665
2026-06-22T18:22:37.163189,1782132757.163095,46,0,0,1712,8.431051297081183
2026-06-22T18:22:37.163261,1782132757.163202,37,0,0,1701,9.313578413481588
2026-06-22T18:22:37.163327,1782132757.16327,15,0,0,1702,10.151621188691657
2026-06-22T18:22:37.215767,1782132757.215647,48,0,0,1711,10.490916821574913
2026-06-22T18:22:37.215841,1782132757.215786,0,0,0,1699,10.098965105526576
2026-06-22T18:22:37.215901,1782132757.215848,0,0,0,1703,8.98706291537312
2026-06-22T18:22:37.267473,1782132757.267371,0,7,0,1710,7.408441157183901
2026-06-22T18:22:37.267537,1782132757.267487,26,0,0,1701,5.733442868917794
2026-06-22T18:22:37.267591,1782132757.267544,10,0,0,1743,4.302296394434931
2026-06-22T18:22:37.267645,1782132757.2675982,18,0,0,1703,3.4544648987348197
2026-06-22T18:22:37.318554,1782132757.318455,0,0,0,1696,3.5723006106266504
2026-06-22T18:22:37.318618,1782132757.318568,0,0,0,1707,4.85548950438152
2026-06-22T18:22:37.318673,1782132757.3186262,2,0,0,1728,6.967070055532974
2026-06-22T18:22:37.371037,1782132757.3709052,53,0,0,1711,9.089078626203918
2026-06-22T18:22:37.371128,1782132757.3710551,37,0,0,1699,10.425824520610096
2026-06-22T18:22:37.371195,1782132757.371138,2,0,0,1683,10.602879850924303
2026-06-22T18:22:37.424083,1782132757.423956,16,0,0,1694,9.703539791636535
2026-06-22T18:22:37.424161,1782132757.4241018,39,0,0,1706,8.089242406425738
2026-06-22T18:22:37.424224,1782132757.42417,48,0,0,1685,6.195587539547878
2026-06-22T18:22:37.474923,1782132757.4747992,43,0,0,1697,4.448920336119492
2026-06-22T18:22:37.475009,1782132757.474943,14,0,0,1693,3.320333234620498
2026-06-22T18:22:37.475067,1782132757.475017,43,0,0,1699,3.2297532345292406
2026-06-22T18:22:37.475123,1782132757.475074,48,0,0,1711,4.163216319276673
2026-06-22T18:22:37.526032,1782132757.525923,5,0,0,1713,5.513221521143471
2026-06-22T18:22:37.526100,1782132757.5260491,0,0,0,1673,6.477055166469839
2026-06-22T18:22:37.526155,1782132757.5261068,5,0,0,1698,6.629983850570346
2026-06-22T18:22:37.578406,1782132757.5782819,23,0,0,1702,6.219884934155624
2026-06-22T18:22:37.578475,1782132757.578424,6,0,0,1707,5.9273198122455355
2026-06-22T18:22:37.578530,1782132757.578485,48,0,0,1699,6.200697119295299
2026-06-22T18:22:37.629837,1782132757.629716,0,0,0,1699,6.86652447089484
2026-06-22T18:22:37.629919,1782132757.629855,41,0,0,1707,7.385697260075842
2026-06-22T18:22:37.629986,1782132757.6299279,23,0,0,1726,7.306552652320448
2026-06-22T18:22:37.630052,1782132757.629995,97,0,0,1706,6.5070258847500755
2026-06-22T18:22:37.680970,1782132757.6808572,18,0,0,1699,5.207202594952771
2026-06-22T18:22:37.681042,1782132757.6809862,16,0,0,1703,3.8381001513238235
2026-06-22T18:22:37.681102,1782132757.68105,21,0,0,1702,2.830369458470253
2026-06-22T18:22:37.733023,1782132757.732836,49,0,0,1702,2.442674482735723
2026-06-22T18:22:37.733146,1782132757.733046,27,0,0,1715,2.706348988863417
2026-06-22T18:22:37.733208,1782132757.7331562,0,0,0,1686,3.4180609879592807
2026-06-22T18:22:37.783600,1782132757.7834911,10,0,0,1702,4.255414968246843
2026-06-22T18:22:37.783674,1782132757.78362,35,0,0,1713,5.006208671104975
2026-06-22T18:22:37.783730,1782132757.783682,22,0,0,1705,5.620685763777196
2026-06-22T18:22:37.834782,1782132757.834639,48,0,0,1702,6.1063258313009126
2026-06-22T18:22:37.835026,1782132757.834962,0,0,0,1707,6.496756349341291
2026-06-22T18:22:37.835091,1782132757.8350358,26,0,0,1707,6.801330568382158
2026-06-22T18:22:37.835154,1782132757.835099,45,0,0,1664,6.913133476697256
2026-06-22T18:22:37.886156,1782132757.8860428,19,0,0,1697,6.752708279675471
2026-06-22T18:22:37.886229,1782132757.8861709,3,0,0,1678,6.596000969772173
2026-06-22T18:22:37.886292,1782132757.886237,5,0,0,1697,7.046396017786385
2026-06-22T18:22:37.938184,1782132757.9380841,3,0,0,1707,8.418447832735241
2026-06-22T18:22:37.938251,1782132757.938198,38,0,0,1709,10.21459913465787
2026-06-22T18:22:37.938306,1782132757.938258,34,0,0,1709,11.436866160605732
2026-06-22T18:22:37.990232,1782132757.9901068,44,0,0,1695,11.367238254898698
2026-06-22T18:22:37.990299,1782132757.990251,19,0,0,1696,9.966219548177651
2026-06-22T18:22:37.990351,1782132757.9903061,48,0,0,1701,7.739245226221595
2026-06-22T18:22:38.040746,1782132758.040641,47,0,0,1708,5.387271444631758
2026-06-22T18:22:38.040825,1782132758.040763,0,0,0,1701,3.4524425884394816
2026-06-22T18:22:38.040892,1782132758.040834,0,0,0,1698,2.1523816964975335
2026-06-22T18:22:38.040957,1782132758.0409,36,0,0,1697,1.4817696989384042
2026-06-22T18:22:38.092045,1782132758.0919511,9,0,0,1712,1.3441444134856675
2026-06-22T18:22:38.092119,1782132758.092062,25,0,0,1704,1.5650323995371374
2026-06-22T18:22:38.092182,1782132758.092128,48,0,0,1699,1.9526454045922073
2026-06-22T18:22:38.144483,1782132758.144326,0,0,0,1699,2.402730663452759
2026-06-22T18:22:38.144555,1782132758.144502,0,0,0,1694,2.8553358544386813
2026-06-22T18:22:38.144612,1782132758.144563,5,0,0,1696,3.215364169249864
2026-06-22T18:22:38.195482,1782132758.1953878,80,0,0,1704,3.392091429978463
2026-06-22T18:22:38.195545,1782132758.1954958,54,0,0,1702,3.3447138237348537
2026-06-22T18:22:38.195599,1782132758.195553,12,0,0,1718,3.0989875631023103
2026-06-22T18:22:38.246050,1782132758.2459679,7,0,0,1707,2.7766082927056375
2026-06-22T18:22:38.246116,1782132758.246065,66,0,0,1712,2.5705249140277147
2026-06-22T18:22:38.246174,1782132758.246124,105,0,0,1712,2.6345679009407688
2026-06-22T18:22:38.246229,1782132758.246181,0,0,0,1711,2.9588335984937384
2026-06-22T18:22:38.297554,1782132758.29744,3,0,0,1697,3.3544722753223795
2026-06-22T18:22:38.297635,1782132758.2975721,31,0,0,1701,3.5892452622412385
2026-06-22T18:22:38.297709,1782132758.2976441,0,0,0,1707,3.5487753823683166
2026-06-22T18:22:38.350044,1782132758.3499498,15,0,0,1699,3.2883204174863354
2026-06-22T18:22:38.350111,1782132758.350057,0,0,0,1716,2.9867275675555534
2026-06-22T18:22:38.350171,1782132758.350118,21,0,0,1705,2.8882614878749124
2026-06-22T18:22:38.401828,1782132758.401742,34,0,0,1703,3.2037960588634258
2026-06-22T18:22:38.401890,1782132758.4018402,11,0,0,1705,3.9284730218147015
2026-06-22T18:22:38.401944,1782132758.401897,32,0,0,1702,4.757083326421418
2026-06-22T18:22:38.401998,1782132758.401951,5,0,0,1694,5.2705316572005865
2026-06-22T18:22:38.452841,1782132758.452749,13,0,0,1679,5.2115785550358416
2026-06-22T18:22:38.452905,1782132758.452855,21,0,0,1695,4.589644797169979
2026-06-22T18:22:38.452959,1782132758.452912,79,0,0,1706,3.650358823870733
2026-06-22T18:22:38.504305,1782132758.503993,16,0,0,1699,2.775599644474648
2026-06-22T18:22:38.504381,1782132758.504321,0,0,0,1698,2.2809993641751483
2026-06-22T18:22:38.504443,1782132758.504389,17,0,0,1703,2.269601770141647
2026-06-22T18:22:38.557327,1782132758.557224,31,0,0,1712,2.6545811638132104
2026-06-22T18:22:38.557394,1782132758.557339,0,0,0,1690,3.2251535018807567
2026-06-22T18:22:38.557453,1782132758.5574012,0,0,0,1696,3.753203211573857
2026-06-22T18:22:38.607719,1782132758.60762,1,0,0,1718,4.155077001304446
2026-06-22T18:22:38.607781,1782132758.6077309,0,0,0,1703,4.521266514336868
2026-06-22T18:22:38.607837,1782132758.607788,80,0,0,1712,5.012891299289822
2026-06-22T18:22:38.607892,1782132758.6078432,13,0,0,1695,5.774724521001163
2026-06-22T18:22:38.658840,1782132758.65873,0,0,0,1699,6.780286597013313
2026-06-22T18:22:38.658903,1782132758.6588538,17,0,0,1696,7.69023497779242
2026-06-22T18:22:38.658956,1782132758.65891,17,0,0,1680,8.0257826307298
2026-06-22T18:22:38.709893,1782132758.709805,64,0,0,1703,7.538917791416359
2026-06-22T18:22:38.709959,1782132758.709907,19,0,0,1702,6.4399421215219395
2026-06-22T18:22:38.710017,1782132758.7099662,0,0,0,1693,5.301440420740861
2026-06-22T18:22:38.762866,1782132758.762775,46,0,0,1713,4.650930950224238
2026-06-22T18:22:38.762940,1782132758.762879,93,0,0,1709,4.660519014369908
2026-06-22T18:22:38.763004,1782132758.762948,47,0,0,1714,5.2119693155983295
2026-06-22T18:22:38.813568,1782132758.81345,0,0,0,1742,6.0294036559064645
2026-06-22T18:22:38.813634,1782132758.81358,8,0,0,1699,6.771605832428611
2026-06-22T18:22:38.813691,1782132758.813642,64,0,0,1703,7.291086680795747
2026-06-22T18:22:38.813751,1782132758.813699,39,0,0,1712,7.784844356948207
2026-06-22T18:22:38.865148,1782132758.8650408,16,0,0,1699,8.493582268674865
2026-06-22T18:22:38.865214,1782132758.865164,0,0,0,1699,9.3730810342429
2026-06-22T18:22:38.865268,1782132758.865221,14,0,0,1701,10.161953821411005
2026-06-22T18:22:38.915780,1782132758.915702,32,0,0,1699,10.542940006260542
2026-06-22T18:22:38.915843,1782132758.915792,17,0,0,1701,10.216207876831874
2026-06-22T18:22:38.915897,1782132758.91585,0,0,0,1696,9.045669208861728
2026-06-22T18:22:38.969086,1782132758.968989,17,0,0,1701,7.1753630968410835
2026-06-22T18:22:38.969161,1782132758.969103,10,0,0,1700,4.975875291778787
2026-06-22T18:22:38.969222,1782132758.969169,8,0,0,1703,2.8898936779941966
2026-06-22T18:22:38.969282,1782132758.9692302,61,0,0,1699,1.267727269030307
2026-06-22T18:22:39.020227,1782132759.0200891,54,0,0,1712,0.2707699821443086
2026-06-22T18:22:39.020304,1782132759.020247,26,0,0,1701,-0.10987118787665733
2026-06-22T18:22:39.020367,1782132759.020312,2,0,0,1709,0.03793113319481611
2026-06-22T18:22:39.072248,1782132759.0721312,48,0,0,1705,0.6002854191299828
2026-06-22T18:22:39.072309,1782132759.072261,65,0,0,1707,1.3993496776213086
2026-06-22T18:22:39.072363,1782132759.072316,0,0,0,1706,2.180477493807395
2026-06-22T18:22:39.125135,1782132759.125021,0,0,0,1699,2.719980261853536
2026-06-22T18:22:39.125199,1782132759.125149,21,0,0,1711,2.950298373208727
2026-06-22T18:22:39.125253,1782132759.125206,68,0,0,1701,2.9947215357239707
2026-06-22T18:22:39.175715,1782132759.175627,34,0,0,1702,3.103750856627797
2026-06-22T18:22:39.175782,1782132759.1757271,0,0,0,1697,3.4860131971384942
2026-06-22T18:22:39.175843,1782132759.17579,22,0,0,1680,4.111000290266406
2026-06-22T18:22:39.175902,1782132759.17585,0,0,0,1706,4.703441006088902
2026-06-22T18:22:39.227077,1782132759.22699,62,0,0,1712,5.008985258406744
2026-06-22T18:22:39.227149,1782132759.227089,48,0,0,1697,5.020695446058442
2026-06-22T18:22:39.227213,1782132759.2271569,0,0,0,1699,4.896701694220696
2026-06-22T18:22:39.279571,1782132759.279455,0,0,0,1697,4.816326152558071
2026-06-22T18:22:39.279638,1782132759.2795851,80,0,0,1701,4.9319129983571415
2026-06-22T18:22:39.279695,1782132759.279646,48,0,0,1708,5.220842758280914
2026-06-22T18:22:39.331601,1782132759.3315022,0,0,0,1708,5.40772008228162
2026-06-22T18:22:39.331665,1782132759.331615,0,0,0,1710,5.182332064429277
2026-06-22T18:22:39.331718,1782132759.331672,32,0,0,1699,4.440497426544461
2026-06-22T18:22:39.331771,1782132759.3317251,25,0,0,1705,3.32730195687985
2026-06-22T18:22:39.382649,1782132759.382561,49,0,0,1705,2.1533162535325205
2026-06-22T18:22:39.382713,1782132759.382663,0,0,0,1675,1.2531151260268119
2026-06-22T18:22:39.382771,1782132759.38272,0,0,0,1701,0.8850233906601986
2026-06-22T18:22:39.434562,1782132759.434464,16,0,0,1697,1.2689158580337347
2026-06-22T18:22:39.434652,1782132759.434577,6,0,0,1705,2.5642369291613787
2026-06-22T18:22:39.434724,1782132759.4346611,44,0,0,1698,4.598529893059716
2026-06-22T18:22:39.486138,1782132759.4860082,17,0,0,1698,6.708874989109145
2026-06-22T18:22:39.486222,1782132759.486156,48,0,0,1711,8.051925269153351
2026-06-22T18:22:39.486282,1782132759.4862301,0,0,0,1708,8.113181848733264
2026-06-22T18:22:39.536619,1782132759.53651,38,0,0,1715,7.001626868586451
2026-06-22T18:22:39.536686,1782132759.5366359,24,0,0,1701,5.350275624154587
2026-06-22T18:22:39.536741,1782132759.536694,0,0,0,1697,3.884223868403797
2026-06-22T18:22:39.536794,1782132759.536748,5,0,0,1700,3.00888736717972
2026-06-22T18:22:39.587729,1782132759.5876448,63,0,0,1707,2.716935734634444
2026-06-22T18:22:39.587788,1782132759.5877419,50,0,0,1722,2.750185190042654
2026-06-22T18:22:39.587838,1782132759.5877938,0,0,0,1709,2.818468093708493
2026-06-22T18:22:39.639723,1782132759.639631,31,0,0,1697,2.765115821825378
2026-06-22T18:22:39.639795,1782132759.6397362,11,0,0,1729,2.622722110806034
2026-06-22T18:22:39.639858,1782132759.6398022,69,0,0,1708,2.5830921161726454
2026-06-22T18:22:39.692993,1782132759.6928809,48,0,0,1701,2.965418807768553
2026-06-22T18:22:39.693066,1782132759.693008,9,0,0,1695,4.04728578981485
2026-06-22T18:22:39.693128,1782132759.693075,14,0,0,1706,5.705416191048156
2026-06-22T18:22:39.743869,1782132759.743726,31,0,0,1698,7.3494822890064935
2026-06-22T18:22:39.743940,1782132759.743888,36,0,0,1703,8.351471104657527
2026-06-22T18:22:39.743999,1782132759.743948,43,0,0,1709,8.436434219957977
2026-06-22T18:22:39.744055,1782132759.744006,6,0,0,1697,7.698099087283403
2026-06-22T18:22:39.795585,1782132759.795485,0,0,0,1680,6.461175490698709
2026-06-22T18:22:39.795647,1782132759.7955992,35,0,0,1710,5.16163269479827
2026-06-22T18:22:39.795699,1782132759.7956538,14,0,0,1699,4.214188112944066
2026-06-22T18:22:39.848366,1782132759.848258,0,0,0,1703,3.923018647310247
2026-06-22T18:22:39.848438,1782132759.848379,0,0,0,1699,4.391428026733825
2026-06-22T18:22:39.848499,1782132759.848446,60,0,0,1693,5.387190267524918
2026-06-22T18:22:39.898715,1782132759.898609,15,0,0,1703,6.419788253787186
2026-06-22T18:22:39.898784,1782132759.8987288,33,0,0,1706,7.048878740023429
2026-06-22T18:22:39.898845,1782132759.898792,0,0,0,1700,7.090324159640769
2026-06-22T18:22:39.898904,1782132759.898852,11,0,0,1697,6.591989345648674
2026-06-22T18:22:39.949818,1782132759.949711,27,0,0,1695,5.695700952596194
2026-06-22T18:22:39.949898,1782132759.949831,5,0,0,1712,4.543745051666839
2026-06-22T18:22:39.949955,1782132759.9499059,41,0,0,1705,3.2996346598663644
2026-06-22T18:22:40.001863,1782132760.001672,25,0,0,1702,2.188307389486474
2026-06-22T18:22:40.001927,1782132760.001877,0,0,0,1697,1.4433251016129791
2026-06-22T18:22:40.001985,1782132760.001934,30,0,0,1705,1.1881589018064493
2026-06-22T18:22:40.054898,1782132760.0547981,61,0,0,1705,1.3699498291393326
2026-06-22T18:22:40.054969,1782132760.0549161,72,0,0,1730,1.798044961580075
2026-06-22T18:22:40.055066,1782132760.055016,0,0,0,1695,2.2667910234201334
2026-06-22T18:22:40.105709,1782132760.1055932,1,0,0,1686,2.7133728479718053
2026-06-22T18:22:40.105783,1782132760.1057248,48,0,0,1706,3.237579507324311
2026-06-22T18:22:40.105848,1782132760.105792,57,0,0,1710,3.935547980879722
2026-06-22T18:22:40.105911,1782132760.105856,0,0,0,1696,4.83032803371478
2026-06-22T18:22:40.157377,1782132760.157242,0,0,0,1695,5.911978637919687
2026-06-22T18:22:40.157453,1782132760.157397,38,0,0,1714,7.032073674846875
2026-06-22T18:22:40.157514,1782132760.157461,20,0,0,1680,7.880064986823856
2026-06-22T18:22:40.208981,1782132760.2088802,35,0,0,1711,8.327346113439779
2026-06-22T18:22:40.209039,1782132760.208995,0,0,0,1662,8.725488877249148
2026-06-22T18:22:40.209087,1782132760.209045,1,0,0,1701,9.645158891827148
2026-06-22T18:22:40.261130,1782132760.261055,21,0,0,1709,11.323812980361298
2026-06-22T18:22:40.261186,1782132760.261142,39,0,0,1709,13.397613271985604
2026-06-22T18:22:40.261234,1782132760.2611918,67,0,0,1705,15.059990073495737
2026-06-22T18:22:40.312053,1782132760.3119712,0,0,0,1729,15.542565909365349
2026-06-22T18:22:40.312117,1782132760.3120651,16,0,0,1696,14.590236207752298
2026-06-22T18:22:40.312173,1782132760.3121228,45,0,0,1705,12.56659829353819
2026-06-22T18:22:40.312229,1782132760.31218,53,0,0,1738,10.203201622264324
2026-06-22T18:22:40.363122,1782132760.363022,0,0,0,1710,8.215593972598313
2026-06-22T18:22:40.363196,1782132760.363137,0,0,0,1709,7.147154720536996
2026-06-22T18:22:40.363258,1782132760.363204,18,0,0,1698,7.388642910642787
2026-06-22T18:22:40.415958,1782132760.415872,20,0,0,1717,8.865494125124515
2026-06-22T18:22:40.416013,1782132760.41597,86,0,0,1662,10.78584355034331
2026-06-22T18:22:40.416062,1782132760.416019,0,0,0,1699,12.235640828279765
2026-06-22T18:22:40.466232,1782132760.466142,11,0,0,1703,13.037373127198045
2026-06-22T18:22:40.466298,1782132760.4662452,16,0,0,1706,13.647078162624373
2026-06-22T18:22:40.466356,1782132760.466306,54,0,0,1707,14.266552930571228
2026-06-22T18:22:40.466412,1782132760.466363,66,0,0,1707,14.501099500114337
2026-06-22T18:22:40.517348,1782132760.517241,0,0,0,1697,13.851339360507513
2026-06-22T18:22:40.517411,1782132760.517361,2,0,0,1701,12.159725406752827
2026-06-22T18:22:40.517469,1782132760.517418,0,0,0,1697,9.649864236690552
2026-06-22T18:22:40.569463,1782132760.569369,58,0,0,1707,6.777429366992425
2026-06-22T18:22:40.569531,1782132760.5694778,62,0,0,1696,4.04413848602858
2026-06-22T18:22:40.569589,1782132760.569539,0,0,0,1703,1.8718743637579331
2026-06-22T18:22:40.620411,1782132760.620333,23,0,0,1703,0.5320324377279347
2026-06-22T18:22:40.620474,1782132760.620427,61,0,0,1707,0.07390559146738951
2026-06-22T18:22:40.620526,1782132760.62048,110,0,0,1703,0.3148209256850032
2026-06-22T18:22:40.670865,1782132760.670773,0,0,0,1697,0.942132006450751
2026-06-22T18:22:40.670935,1782132760.670878,0,0,0,1699,1.6432581972011446
2026-06-22T18:22:40.670999,1782132760.670943,45,0,0,1701,2.2064533066995593
2026-06-22T18:22:40.671058,1782132760.671007,46,0,0,1710,2.577632806412499
2026-06-22T18:22:40.721984,1782132760.7218611,7,0,0,1686,2.8222853900547182
2026-06-22T18:22:40.722050,1782132760.721996,0,0,0,1699,3.059503360589706
2026-06-22T18:22:40.722109,1782132760.7220569,27,0,0,1702,3.4646481605802175
2026-06-22T18:22:40.774002,1782132760.7738812,23,0,0,1710,4.188726309693659
2026-06-22T18:22:40.774062,1782132760.774016,61,0,0,1703,5.126033760701698
2026-06-22T18:22:40.774112,1782132760.774069,70,0,0,1703,5.87747488219697
2026-06-22T18:22:40.826754,1782132760.82664,7,0,0,1698,6.064655446408624
2026-06-22T18:22:40.826814,1782132760.826768,35,0,0,1713,5.6026759105948765
2026-06-22T18:22:40.826864,1782132760.826821,17,0,0,1701,4.673502090180191
2026-06-22T18:22:40.877246,1782132760.877156,44,0,0,1711,3.5948248765230617
2026-06-22T18:22:40.877311,1782132760.8772612,4,0,0,1697,2.7299187886991887
2026-06-22T18:22:40.877362,1782132760.877318,0,0,0,1695,2.341685506879384
2026-06-22T18:22:40.877419,1782132760.877374,0,0,0,1696,2.4256940355832444
2026-06-22T18:22:40.928732,1782132760.928617,48,0,0,1689,2.7456431503891987
2026-06-22T18:22:40.928796,1782132760.928746,54,0,0,1709,3.078403342755441
2026-06-22T18:22:40.928849,1782132760.928803,0,0,0,1699,3.4050922825486163
2026-06-22T18:22:40.979854,1782132760.9797702,0,0,0,1677,3.867142761061657
2026-06-22T18:22:40.979919,1782132760.979867,18,0,0,1723,4.569266673028643
2026-06-22T18:22:40.979973,1782132760.979926,44,0,0,1703,5.510966451065218
2026-06-22T18:22:41.032438,1782132761.032334,74,0,0,1711,6.731595606009954
2026-06-22T18:22:41.032511,1782132761.0324512,0,0,0,1698,8.271604418139727
2026-06-22T18:22:41.032576,1782132761.0325198,6,0,0,1699,9.853552906576633
2026-06-22T18:22:41.083050,1782132761.0829492,0,0,0,1701,10.867759896054437
2026-06-22T18:22:41.083114,1782132761.083062,49,0,0,1696,10.803611667120157
2026-06-22T18:22:41.083175,1782132761.083122,62,0,0,1694,9.613151487670622
2026-06-22T18:22:41.083250,1782132761.0831811,0,0,0,1700,7.733854386384065
2026-06-22T18:22:41.134804,1782132761.134691,5,0,0,1697,5.8004977845699015
2026-06-22T18:22:41.134867,1782132761.134818,23,0,0,1710,4.2452067761253565
2026-06-22T18:22:41.134922,1782132761.1348748,51,0,0,1705,3.138966145131003
2026-06-22T18:22:41.187531,1782132761.187443,0,0,0,1693,2.3519409414418107
2026-06-22T18:22:41.187595,1782132761.187546,9,0,0,1698,1.7901289619576664
2026-06-22T18:22:41.187650,1782132761.1876018,0,0,0,1712,1.5237151082185785
2026-06-22T18:22:41.237997,1782132761.237895,46,0,0,1699,1.709060042845026
2026-06-22T18:22:41.238069,1782132761.2380102,52,0,0,1709,2.3574990726206835
2026-06-22T18:22:41.238132,1782132761.238077,0,0,0,1698,3.252078959708526
2026-06-22T18:22:41.238194,1782132761.238139,0,0,0,1683,4.095753859120386
2026-06-22T18:22:41.289096,1782132761.288975,32,0,0,1703,4.678964180728118
2026-06-22T18:22:41.289161,1782132761.289109,79,0,0,1706,5.010841562677975
2026-06-22T18:22:41.289220,1782132761.289168,67,0,0,1702,5.328626451212363
2026-06-22T18:22:41.341079,1782132761.340925,0,0,0,1690,5.828547577608715
2026-06-22T18:22:41.341154,1782132761.341099,16,0,0,1698,6.385802474451329
2026-06-22T18:22:41.341216,1782132761.341161,0,0,0,1680,6.684658350669884
2026-06-22T18:22:41.393247,1782132761.393155,71,0,0,1737,6.633205530503248
2026-06-22T18:22:41.393307,1782132761.393259,0,0,0,1701,6.570081115507955
2026-06-22T18:22:41.393360,1782132761.3933141,10,0,0,1699,7.070055833829478
2026-06-22T18:22:41.443624,1782132761.443522,0,0,0,1698,8.475915013755182
2026-06-22T18:22:41.443695,1782132761.443639,34,0,0,1693,10.476167031860465
2026-06-22T18:22:41.443757,1782132761.4437041,48,0,0,1693,12.244890734453458
2026-06-22T18:22:41.443815,1782132761.443764,0,0,0,1729,13.051691723334082
2026-06-22T18:22:41.494840,1782132761.494742,0,0,0,1695,12.639838142075664
2026-06-22T18:22:41.494903,1782132761.4948502,27,0,0,1707,11.269321414724226
2026-06-22T18:22:41.494961,1782132761.49491,44,0,0,1712,9.582104145871861
2026-06-22T18:22:41.547009,1782132761.546897,61,0,0,1701,8.200811105268278
2026-06-22T18:22:41.547072,1782132761.5470212,0,0,0,1693,7.42035113691115
2026-06-22T18:22:41.547128,1782132761.5470788,0,0,0,1695,7.2697142568317545
2026-06-22T18:22:41.599587,1782132761.599494,3,0,0,1712,7.557517747920495
2026-06-22T18:22:41.599648,1782132761.5996,64,0,0,1685,7.875875982661568
2026-06-22T18:22:41.599709,1782132761.599655,86,0,0,1703,7.937806424465457
2026-06-22T18:22:41.650336,1782132761.650244,0,0,0,1706,7.932779038566964
2026-06-22T18:22:41.650403,1782132761.650348,10,0,0,1701,8.264639308003835
2026-06-22T18:22:41.650463,1782132761.65041,13,0,0,1705,8.935719143642208
2026-06-22T18:22:41.650522,1782132761.650469,23,0,0,1705,9.43433640462754
2026-06-22T18:22:41.702038,1782132761.70194,0,0,0,1697,9.213300368487223
2026-06-22T18:22:41.702117,1782132761.702053,0,0,0,1699,8.125508756432522
2026-06-22T18:22:41.702186,1782132761.702126,18,0,0,1699,6.479999441579834
2026-06-22T18:22:41.753398,1782132761.753315,80,0,0,1709,4.790761419002766
2026-06-22T18:22:41.753463,1782132761.753409,48,0,0,1709,3.4597482583885175
2026-06-22T18:22:41.753562,1782132761.753509,19,0,0,1699,2.6456929505236126
2026-06-22T18:22:41.805476,1782132761.805366,0,0,0,1686,2.3068987247387684
2026-06-22T18:22:41.805540,1782132761.8054888,38,0,0,1702,2.276167263141317
2026-06-22T18:22:41.805594,1782132761.805547,48,0,0,1665,2.394335770385788
2026-06-22T18:22:41.805647,1782132761.8056,94,0,0,1706,2.7306867816431977
2026-06-22T18:22:41.856481,1782132761.856373,0,0,0,1700,3.6430221888860728
2026-06-22T18:22:41.856554,1782132761.856499,0,0,0,1709,5.427760085228642
2026-06-22T18:22:41.856613,1782132761.856562,14,0,0,1698,7.829659751163872
2026-06-22T18:22:41.908480,1782132761.908374,67,0,0,1703,10.008157841550053
2026-06-22T18:22:41.908550,1782132761.908494,0,0,0,1709,11.051409044540291
2026-06-22T18:22:41.908612,1782132761.9085581,0,0,0,1694,10.529859365176222
2026-06-22T18:22:41.960585,1782132761.96049,17,0,0,1699,8.726000825547882
2026-06-22T18:22:41.960653,1782132761.960596,13,0,0,1710,6.485077448996755
2026-06-22T18:22:41.960716,1782132761.960661,53,0,0,1702,4.716199058145538
2026-06-22T18:22:42.010994,1782132762.010893,0,0,0,1706,3.868398919638885
2026-06-22T18:22:42.011062,1782132762.011008,0,0,0,1674,3.8257336305895295
2026-06-22T18:22:42.011121,1782132762.01107,1,0,0,1683,4.184216907782264
2026-06-22T18:22:42.011177,1782132762.011128,47,0,0,1706,4.557113325791056
2026-06-22T18:22:42.061620,1782132762.061525,71,0,0,1710,4.747346235702832
2026-06-22T18:22:42.061685,1782132762.061635,0,0,0,1699,4.80416567587679
2026-06-22T18:22:42.061736,1782132762.0616908,0,0,0,1702,4.932434905193062
2026-06-22T18:22:42.113653,1782132762.1135669,31,0,0,1705,5.240961663550245
2026-06-22T18:22:42.113722,1782132762.1136699,77,0,0,1702,5.597655838723827
2026-06-22T18:22:42.113779,1782132762.11373,97,0,0,1699,5.80108484650373
2026-06-22T18:22:42.167074,1782132762.166989,0,0,0,1693,5.791083190790389
2026-06-22T18:22:42.167146,1782132762.1670861,16,0,0,1712,5.615804521302622
2026-06-22T18:22:42.167212,1782132762.167153,21,0,0,1701,5.329079334704291
2026-06-22T18:22:42.217963,1782132762.2178502,48,0,0,1680,5.042096534385291
2026-06-22T18:22:42.218029,1782132762.217976,0,0,0,1695,4.948610976191615
2026-06-22T18:22:42.218086,1782132762.218036,0,0,0,1699,5.1770055702064655
2026-06-22T18:22:42.218142,1782132762.2180932,35,0,0,1695,5.680277821563331
2026-06-22T18:22:42.269826,1782132762.26969,55,0,0,1705,6.2611791081440895
2026-06-22T18:22:42.269899,1782132762.269851,75,0,0,1710,6.693832209180923
2026-06-22T18:22:42.269952,1782132762.2699058,23,0,0,1691,6.862928899008319
2026-06-22T18:22:42.321264,1782132762.321174,7,0,0,1686,6.756278454339451
2026-06-22T18:22:42.321332,1782132762.3212821,49,0,0,1702,6.390595198887942
2026-06-22T18:22:42.321387,1782132762.3213398,35,2,0,1706,5.8193876439656504
2026-06-22T18:22:42.372492,1782132762.372396,74,0,0,1712,5.182238749436759
2026-06-22T18:22:42.372562,1782132762.3725061,46,0,0,1695,4.674231515371628
2026-06-22T18:22:42.372621,1782132762.372569,0,0,0,1710,4.38563815975915
2026-06-22T18:22:42.372680,1782132762.372629,4,0,0,1680,4.274877353607338
2026-06-22T18:22:42.423545,1782132762.423415,0,0,0,1707,4.387049834790388
2026-06-22T18:22:42.423631,1782132762.4235651,0,0,0,1699,4.920290313991698
2026-06-22T18:22:42.423691,1782132762.423638,0,0,0,1696,5.950249700608032
2026-06-22T18:22:42.475498,1782132762.4753869,7,0,0,1709,7.187249748487224
2026-06-22T18:22:42.475560,1782132762.475511,16,0,0,1697,8.153060058746554
2026-06-22T18:22:42.475613,1782132762.475567,29,0,0,1703,8.594913418174977
2026-06-22T18:22:42.526384,1782132762.526245,0,0,0,1698,8.600435113655173
2026-06-22T18:22:42.526448,1782132762.526401,0,0,0,1698,8.337365232419902
2026-06-22T18:22:42.526501,1782132762.526455,27,0,0,1701,7.835100596122052
2026-06-22T18:22:42.577420,1782132762.577337,0,0,0,1714,7.025046476938943
2026-06-22T18:22:42.577482,1782132762.5774322,75,0,0,1703,5.906826810638722
2026-06-22T18:22:42.577540,1782132762.5774899,0,0,0,1694,4.666024814949937
2026-06-22T18:22:42.577595,1782132762.577546,0,0,0,1697,3.617749901365129
2026-06-22T18:22:42.628505,1782132762.628396,16,0,0,1705,2.981457150124726
2026-06-22T18:22:42.628571,1782132762.6285172,51,0,0,1702,2.7407245550097055
2026-06-22T18:22:42.628632,1782132762.6285791,66,0,0,1702,2.746792624802708
2026-06-22T18:22:42.679499,1782132762.679415,0,0,0,1695,2.877637871649866
2026-06-22T18:22:42.679563,1782132762.679512,17,0,0,1712,3.0592594885964033
2026-06-22T18:22:42.679618,1782132762.67957,21,0,0,1706,3.222887053968969
2026-06-22T18:22:42.731855,1782132762.731744,33,0,0,1712,3.352254418131624
2026-06-22T18:22:42.731914,1782132762.7318661,0,0,0,1699,3.521819952000461
2026-06-22T18:22:42.731966,1782132762.7319198,0,0,0,1703,3.7700750298070567
2026-06-22T18:22:42.782301,1782132762.782207,46,0,0,1705,3.989120880944335
2026-06-22T18:22:42.782369,1782132762.782315,45,0,0,1703,4.014242713474025
2026-06-22T18:22:42.782425,1782132762.782376,54,0,0,1702,3.771930964384887
2026-06-22T18:22:42.782482,1782132762.782431,0,0,0,1693,3.3297982943027207
2026-06-22T18:22:42.832837,1782132762.832754,4,0,0,1701,2.844987465416759
2026-06-22T18:22:42.832910,1782132762.8328488,42,0,0,1707,2.4710000642916268
2026-06-22T18:22:42.832977,1782132762.8329191,35,0,0,1706,2.2920161340646157
2026-06-22T18:22:42.883401,1782132762.883318,41,0,0,1725,2.2993393721378013
2026-06-22T18:22:42.883463,1782132762.883413,0,0,0,1678,2.4506308009063154
2026-06-22T18:22:42.883518,1782132762.88347,50,0,0,1693,2.8278200938024054
2026-06-22T18:22:42.934970,1782132762.934887,22,0,0,1712,3.6725585127454967
2026-06-22T18:22:42.935030,1782132762.9349818,62,0,0,1687,5.13811772243476
2026-06-22T18:22:42.935083,1782132762.935037,25,0,0,1699,7.0924447867121305
2026-06-22T18:22:42.986684,1782132762.98659,0,0,0,1695,9.25688264988753
2026-06-22T18:22:42.986749,1782132762.986698,33,0,0,1703,11.2961836818491
2026-06-22T18:22:42.986804,1782132762.986757,16,0,0,1702,12.674523525523247
2026-06-22T18:22:43.037723,1782132763.037626,54,0,0,1708,12.783147261783123
2026-06-22T18:22:43.037799,1782132763.037738,0,0,0,1693,11.411354828182784
2026-06-22T18:22:43.037865,1782132763.037807,0,0,0,1697,8.968149966450481
2026-06-22T18:22:43.037928,1782132763.037872,0,0,0,1683,6.228260833007242
2026-06-22T18:22:43.088222,1782132763.0881112,21,0,0,1706,3.93375239830378
2026-06-22T18:22:43.088299,1782132763.088243,53,0,0,1707,2.546216267749289
2026-06-22T18:22:43.088359,1782132763.088307,0,0,0,1705,2.1705117289688367
2026-06-22T18:22:43.140881,1782132763.140776,0,0,0,1697,2.579049435243157
2026-06-22T18:22:43.140945,1782132763.140897,0,0,0,1690,3.3462312923675697
2026-06-22T18:22:43.141003,1782132763.140953,16,0,0,1709,4.060727841739799
2026-06-22T18:22:43.191937,1782132763.191839,80,0,0,1706,4.485554199433265
2026-06-22T18:22:43.191997,1782132763.191952,0,0,0,1699,4.625361769226988
2026-06-22T18:22:43.192047,1782132763.1920042,6,0,0,1701,4.657064398143422
2026-06-22T18:22:43.192096,1782132763.192054,16,0,0,1700,4.712764634889442
2026-06-22T18:22:43.242987,1782132763.242885,38,0,0,1712,4.747052075547981
2026-06-22T18:22:43.243051,1782132763.2430038,0,0,0,1709,4.607329001986835
2026-06-22T18:22:43.243102,1782132763.243058,0,0,0,1703,4.163486044189253
2026-06-22T18:22:43.294911,1782132763.29481,32,0,0,1703,3.4158665571811584
2026-06-22T18:22:43.294973,1782132763.2949262,16,0,0,1699,2.542125864885474
2026-06-22T18:22:43.295023,1782132763.29498,32,0,0,1700,1.8245013698055899
2026-06-22T18:22:43.347989,1782132763.347898,27,0,0,1707,1.47850956354033
2026-06-22T18:22:43.348050,1782132763.348005,0,0,0,1697,1.507279721350606
2026-06-22T18:22:43.348100,1782132763.348057,16,0,0,1705,1.740068728141258
2026-06-22T18:22:43.398959,1782132763.398842,49,0,0,1718,2.006118187087014
2026-06-22T18:22:43.399031,1782132763.3989801,84,0,0,1703,2.234003715595874
2026-06-22T18:22:43.399086,1782132763.399039,0,0,0,1698,2.4682351225088324
2026-06-22T18:22:43.399140,1782132763.399093,28,0,0,1701,2.8453894742874684
2026-06-22T18:22:43.450082,1782132763.4499898,42,0,0,1711,3.4362071215805754
2026-06-22T18:22:43.450199,1782132763.4501529,48,0,0,1710,4.093824305402394
2026-06-22T18:22:43.450249,1782132763.450206,2,0,0,1764,4.573001399730415
2026-06-22T18:22:43.500939,1782132763.50085,10,0,0,1699,4.85780376082865
2026-06-22T18:22:43.500998,1782132763.5009532,0,0,0,1703,5.3859998697448646
2026-06-22T18:22:43.501047,1782132763.501004,48,0,0,1705,6.8014236897149605
2026-06-22T18:22:43.552156,1782132763.5520582,75,0,0,1710,9.275554859186414
2026-06-22T18:22:43.552221,1782132763.5521731,0,0,0,1707,12.175820555332376
2026-06-22T18:22:43.552272,1782132763.5522282,0,0,0,1693,14.47944189621549
2026-06-22T18:22:43.602606,1782132763.6025002,34,0,0,1708,15.3421575504644
2026-06-22T18:22:43.602673,1782132763.602624,23,0,0,1716,14.462092157412542
2026-06-22T18:22:43.602724,1782132763.60268,86,0,0,1697,12.251912540782028
2026-06-22T18:22:43.602774,1782132763.602731,5,0,0,1694,9.575214062865316
2026-06-22T18:22:43.653911,1782132763.653805,11,0,0,1702,7.1989811639698305
2026-06-22T18:22:43.653985,1782132763.653926,2,0,0,1710,5.508052464437426
2026-06-22T18:22:43.654040,1782132763.653995,22,0,0,1707,4.580325629248271
2026-06-22T18:22:43.706180,1782132763.706068,83,0,0,1704,4.3218397977058505
2026-06-22T18:22:43.706262,1782132763.7062058,0,0,0,1683,4.475920972078489
2026-06-22T18:22:43.706314,1782132763.70627,0,0,0,1705,4.65810803105565
2026-06-22T18:22:43.759229,1782132763.759124,0,0,0,1733,4.555795887904484
2026-06-22T18:22:43.759302,1782132763.7592509,63,0,0,1700,4.134578936251953
2026-06-22T18:22:43.759354,1782132763.75931,0,0,0,1701,3.7196172155673377
2026-06-22T18:22:43.759405,1782132763.759361,0,0,0,1691,3.897874429165621
2026-06-22T18:22:43.810307,1782132763.8101928,0,0,0,1698,5.085515872478501
2026-06-22T18:22:43.810373,1782132763.810325,43,0,0,1705,6.999454945034987
2026-06-22T18:22:43.810426,1782132763.8103812,49,0,0,1709,8.718956087153174
2026-06-22T18:22:43.861540,1782132763.861349,7,0,0,1697,9.366624980356853
2026-06-22T18:22:43.861649,1782132763.861571,0,0,0,1694,8.65773494547174
2026-06-22T18:22:43.861719,1782132763.86166,0,0,0,1694,6.915253457810938
2026-06-22T18:22:43.913400,1782132763.913291,29,0,0,1702,4.762921373566108
2026-06-22T18:22:43.913474,1782132763.913418,79,0,0,1712,2.782969457232231
2026-06-22T18:22:43.913535,1782132763.913483,0,0,0,1712,1.3119508508707631
2026-06-22T18:22:43.964027,1782132763.9639308,0,0,0,1698,0.43325603334581686
2026-06-22T18:22:43.964093,1782132763.964043,20,0,0,1710,0.08609551883087872
2026-06-22T18:22:43.964146,1782132763.9641001,32,0,0,1714,0.19383904901202897
2026-06-22T18:22:43.964199,1782132763.964153,0,0,0,1699,0.7136819315144172
2026-06-22T18:22:44.015388,1782132764.015286,22,0,0,1697,1.5651600404556008
2026-06-22T18:22:44.015456,1782132764.015405,0,0,0,1697,2.5954063238583065
2026-06-22T18:22:44.015513,1782132764.0154638,25,0,0,1702,3.629330560491925
2026-06-22T18:22:44.067429,1782132764.06732,48,0,0,1703,4.460860910394635
2026-06-22T18:22:44.067509,1782132764.067445,0,0,0,1700,4.8591631053233435
2026-06-22T18:22:44.067580,1782132764.067518,0,0,0,1686,4.695755589957676
2026-06-22T18:22:44.120719,1782132764.1206,0,0,0,1728,4.058609704447375
2026-06-22T18:22:44.120788,1782132764.120733,16,0,0,1703,3.290770540691244
2026-06-22T18:22:44.120849,1782132764.120796,94,0,0,1704,2.966761355867324
2026-06-22T18:22:44.171527,1782132764.1713789,28,0,0,1702,3.6040967085748825
2026-06-22T18:22:44.171604,1782132764.1715488,0,0,0,1711,5.16683593967709
2026-06-22T18:22:44.171663,1782132764.1716118,30,0,0,1696,6.984084673189571
2026-06-22T18:22:44.171719,1782132764.17167,34,0,0,1715,8.25307343711046
2026-06-22T18:22:44.223281,1782132764.2231739,65,0,0,1711,8.553315695962855
2026-06-22T18:22:44.223350,1782132764.2233,0,0,0,1729,7.960321498468583
2026-06-22T18:22:44.223406,1782132764.223358,0,0,0,1698,6.798685133734268
2026-06-22T18:22:44.276031,1782132764.275949,49,0,0,1706,5.40149368712742
2026-06-22T18:22:44.276097,1782132764.276043,3,0,0,1701,4.110793950027243
2026-06-22T18:22:44.276156,1782132764.276104,0,0,0,1698,3.2636358826803415
2026-06-22T18:22:44.326499,1782132764.3263948,0,0,0,1698,3.049621642401637
2026-06-22T18:22:44.326573,1782132764.326515,6,0,0,1705,3.456312458857232
2026-06-22T18:22:44.326634,1782132764.326581,34,0,0,1710,4.287138856154649
2026-06-22T18:22:44.326695,1782132764.326642,48,0,0,1699,5.182875545428181
2026-06-22T18:22:44.377630,1782132764.377523,21,0,0,1703,5.798992666802815
2026-06-22T18:22:44.377700,1782132764.377644,0,0,0,1697,6.060870870847371
2026-06-22T18:22:44.377762,1782132764.377708,0,0,0,1696,6.153762358740834
2026-06-22T18:22:44.429674,1782132764.429533,36,0,0,1697,6.23389607241144
2026-06-22T18:22:44.429756,1782132764.4296908,65,0,0,1703,6.237414029765717
2026-06-22T18:22:44.429828,1782132764.429766,7,0,0,1698,5.9953104593798185
2026-06-22T18:22:44.482924,1782132764.482812,0,0,0,1697,5.4605237751981335
2026-06-22T18:22:44.483012,1782132764.4829388,34,0,0,1707,4.768014115871193
2026-06-22T18:22:44.483074,1782132764.483021,13,0,0,1708,4.093487537455575
2026-06-22T18:22:44.533667,1782132764.53357,29,0,0,1697,3.5128769088672342
2026-06-22T18:22:44.533731,1782132764.533681,0,0,0,1697,3.0203959140466567
2026-06-22T18:22:44.533784,1782132764.533738,0,0,0,1698,2.6490597425761124
2026-06-22T18:22:44.533842,1782132764.533791,45,0,0,1705,2.495054828089207
2026-06-22T18:22:44.585308,1782132764.5852249,80,0,0,1709,2.5675148198115147
2026-06-22T18:22:44.585370,1782132764.58532,0,0,0,1709,2.700292249650903
2026-06-22T18:22:44.585424,1782132764.585377,0,0,0,1694,2.694592092474177
2026-06-22T18:22:44.637325,1782132764.637223,0,0,0,1694,2.4927102110345376
2026-06-22T18:22:44.637405,1782132764.637341,22,0,0,1701,2.1967738980512346
2026-06-22T18:22:44.637485,1782132764.637425,78,0,0,1701,1.9699299740795864
2026-06-22T18:22:44.688932,1782132764.68883,0,0,0,1696,1.9202832698950736
2026-06-22T18:22:44.689001,1782132764.688946,0,0,0,1693,2.0491608689474026
2026-06-22T18:22:44.689062,1782132764.689009,0,0,0,1699,2.2680429305093095
2026-06-22T18:22:44.689121,1782132764.689069,71,0,0,1710,2.4479611699389965
2026-06-22T18:22:44.740068,1782132764.739955,64,0,0,1702,2.48916229687533
2026-06-22T18:22:44.740130,1782132764.74008,9,0,0,1701,2.379441443894155
2026-06-22T18:22:44.740184,1782132764.7401369,13,0,0,1699,2.2043876667794398
2026-06-22T18:22:44.792032,1782132764.791931,39,0,0,1701,2.0843980604228074
2026-06-22T18:22:44.792097,1782132764.7920482,47,0,0,1707,2.0777699112836547
2026-06-22T18:22:44.792150,1782132764.792104,0,0,0,1702,2.1537921637954938
2026-06-22T18:22:44.842711,1782132764.842633,0,0,0,1698,2.244720103802764
2026-06-22T18:22:44.842786,1782132764.8427231,1,0,0,1703,2.3006738250133694
2026-06-22T18:22:44.842851,1782132764.842794,53,0,0,1712,2.2968999916005304
2026-06-22T18:22:44.893731,1782132764.893623,58,0,0,1706,2.2182649869735034
2026-06-22T18:22:44.893803,1782132764.893745,29,0,0,1712,2.0932229448583084
2026-06-22T18:22:44.893865,1782132764.893811,0,0,0,1695,2.0451081343920876
2026-06-22T18:22:44.893923,1782132764.893872,8,0,0,1711,2.2447919278386883
2026-06-22T18:22:44.944825,1782132764.944716,39,0,0,1714,2.7833526883829864
2026-06-22T18:22:44.944888,1782132764.944837,69,0,0,1708,3.587258823939953
2026-06-22T18:22:44.944945,1782132764.944895,6,0,0,1703,4.421818234912768
2026-06-22T18:22:44.996775,1782132764.9966788,8,0,0,1699,5.000940601587695
2026-06-22T18:22:44.996839,1782132764.99679,0,0,0,1694,5.1447000111597525
2026-06-22T18:22:44.996892,1782132764.9968462,52,0,0,1705,4.836619849914801
2026-06-22T18:22:45.047506,1782132765.0474272,64,0,0,1715,4.185722855496799
2026-06-22T18:22:45.047572,1782132765.047521,0,0,0,1698,3.3759700622893525
2026-06-22T18:22:45.047629,1782132765.0475788,0,0,0,1700,2.6309339959341043
2026-06-22T18:22:45.098498,1782132765.098387,0,0,0,1699,2.1969535327763787
2026-06-22T18:22:45.098577,1782132765.0985138,61,0,0,1712,2.2455559965667766
2026-06-22T18:22:45.098646,1782132765.098588,0,0,0,1707,2.701429901704822
2026-06-22T18:22:45.098709,1782132765.0986528,0,0,0,1718,3.257896256689827
2026-06-22T18:22:45.149249,1782132765.14915,0,0,0,1697,3.6405833581461198
2026-06-22T18:22:45.149312,1782132765.149261,18,0,0,1695,3.7984767346262673
2026-06-22T18:22:45.149368,1782132765.149319,74,0,0,1708,3.820601537184978
2026-06-22T18:22:45.201174,1782132765.201061,26,0,0,1734,3.7679136740265724
2026-06-22T18:22:45.201238,1782132765.201188,0,0,0,1699,3.6588188532357746
2026-06-22T18:22:45.201292,1782132765.201246,0,0,0,1692,3.5774108431914273
2026-06-22T18:22:45.253936,1782132765.253848,50,0,0,1701,3.7111543123703434
